PE UV       SUBTECH     SPECTRUM    ASCII       PEDS        4.00        
   -1
100% or 0 Absorbance Baseline.Correction.Raw.asc
20/08/25
15:40:20.00
20/08/25
15:40:20.00
Analyst

390,000000
1
Lambda 25
501s11081509
PerkinElmer UV WinLab 6.0.3.0730 / Lambda25 1.27

480
0
1
0
0
Both on
0
1
1
None
0
0
0
0
 
 
0
0
0
0
0
 
 
 
0
 
0
326
0
 
0
 
 
 
0
0
0
 
0
 
 
 
0
 
 
0
0
0
0
0
 
 
 
 
0
0


#HDR
-1
-1
#GR
nm
A
1.0
0.0
700,000000
-1,000000
311
8
-0,007453
-0,025985
#DATA
700,000000	-0,025985
699,000000	-0,025838
698,000000	-0,025621
697,000000	-0,025707
696,000000	-0,025400
695,000000	-0,025371
694,000000	-0,025220
693,000000	-0,025355
692,000000	-0,025044
691,000000	-0,025027
690,000000	-0,024921
689,000000	-0,024687
688,000000	-0,024785
687,000000	-0,024461
686,000000	-0,024387
685,000000	-0,024165
684,000000	-0,024133
683,000000	-0,023697
682,000000	-0,023557
681,000000	-0,023487
680,000000	-0,023598
679,000000	-0,023425
678,000000	-0,023199
677,000000	-0,023483
676,000000	-0,023178
675,000000	-0,023030
674,000000	-0,023010
673,000000	-0,022820
672,000000	-0,022746
671,000000	-0,022564
670,000000	-0,022564
669,000000	-0,022738
668,000000	-0,022531
667,000000	-0,022367
666,000000	-0,022218
665,000000	-0,022094
664,000000	-0,021900
663,000000	-0,021830
662,000000	-0,021789
661,000000	-0,021661
660,000000	-0,021780
659,000000	-0,021508
658,000000	-0,021450
657,000000	-0,021516
656,000000	-0,021301
655,000000	-0,021206
654,000000	-0,021202
653,000000	-0,021057
652,000000	-0,020987
651,000000	-0,020962
650,000000	-0,020738
649,000000	-0,020945
648,000000	-0,020809
647,000000	-0,020792
646,000000	-0,020767
645,000000	-0,020502
644,000000	-0,020585
643,000000	-0,020411
642,000000	-0,020552
641,000000	-0,020428
640,000000	-0,020568
639,000000	-0,020552
638,000000	-0,020386
637,000000	-0,020274
636,000000	-0,020162
635,000000	-0,020088
634,000000	-0,020096
633,000000	-0,019884
632,000000	-0,020009
631,000000	-0,019951
630,000000	-0,019972
629,000000	-0,020129
628,000000	-0,020050
627,000000	-0,019984
626,000000	-0,019934
625,000000	-0,019943
624,000000	-0,019868
623,000000	-0,019955
622,000000	-0,019984
621,000000	-0,019947
620,000000	-0,019793
619,000000	-0,019843
618,000000	-0,019640
617,000000	-0,019880
616,000000	-0,019723
615,000000	-0,019743
614,000000	-0,019681
613,000000	-0,019723
612,000000	-0,019561
611,000000	-0,019714
610,000000	-0,019743
609,000000	-0,019478
608,000000	-0,019673
607,000000	-0,019714
606,000000	-0,019602
605,000000	-0,019710
604,000000	-0,019748
603,000000	-0,019656
602,000000	-0,019889
601,000000	-0,019893
600,000000	-0,020034
599,000000	-0,019876
598,000000	-0,019864
597,000000	-0,019843
596,000000	-0,019781
595,000000	-0,019955
594,000000	-0,019897
593,000000	-0,019851
592,000000	-0,019627
591,000000	-0,019528
590,000000	-0,019295
589,000000	-0,018983
588,000000	-0,018713
587,000000	-0,018409
586,000000	-0,017951
585,000000	-0,017371
584,000000	-0,016979
583,000000	-0,016590
582,000000	-0,016390
581,000000	-0,015481
580,000000	-0,015003
579,000000	-0,014584
578,000000	-0,014121
577,000000	-0,013793
576,000000	-0,013587
575,000000	-0,012981
574,000000	-0,012833
573,000000	-0,012529
572,000000	-0,012200
571,000000	-0,011841
570,000000	-0,011959
569,000000	-0,011782
568,000000	-0,011773
567,000000	-0,011680
566,000000	-0,011723
565,000000	-0,011930
564,000000	-0,011668
563,000000	-0,011579
562,000000	-0,011740
561,000000	-0,011680
560,000000	-0,011592
559,000000	-0,011490
558,000000	-0,011592
557,000000	-0,011790
556,000000	-0,011706
555,000000	-0,011735
554,000000	-0,011756
553,000000	-0,011655
552,000000	-0,011676
551,000000	-0,011651
550,000000	-0,011600
549,000000	-0,011976
548,000000	-0,011879
547,000000	-0,012073
546,000000	-0,012196
545,000000	-0,011909
544,000000	-0,012145
543,000000	-0,012263
542,000000	-0,012090
541,000000	-0,012179
540,000000	-0,012263
539,000000	-0,012171
538,000000	-0,012179
537,000000	-0,012453
536,000000	-0,012331
535,000000	-0,012462
534,000000	-0,012398
533,000000	-0,012500
532,000000	-0,012487
531,000000	-0,012761
530,000000	-0,012660
529,000000	-0,012576
528,000000	-0,012749
527,000000	-0,012584
526,000000	-0,012496
525,000000	-0,012584
524,000000	-0,012614
523,000000	-0,012597
522,000000	-0,012766
521,000000	-0,012660
520,000000	-0,012896
519,000000	-0,012879
518,000000	-0,012841
517,000000	-0,012985
516,000000	-0,013200
515,000000	-0,013309
514,000000	-0,013179
513,000000	-0,013427
512,000000	-0,013457
511,000000	-0,013726
510,000000	-0,013579
509,000000	-0,013596
508,000000	-0,013865
507,000000	-0,013776
506,000000	-0,013785
505,000000	-0,013936
504,000000	-0,014092
503,000000	-0,014113
502,000000	-0,014306
501,000000	-0,014500
500,000000	-0,014542
499,000000	-0,014542
498,000000	-0,014659
497,000000	-0,014659
496,000000	-0,014714
495,000000	-0,014907
494,000000	-0,015158
493,000000	-0,014974
492,000000	-0,015188
491,000000	-0,015154
490,000000	-0,015112
489,000000	-0,015230
488,000000	-0,015452
487,000000	-0,015284
486,000000	-0,015532
485,000000	-0,015527
484,000000	-0,015490
483,000000	-0,015695
482,000000	-0,015536
481,000000	-0,015992
480,000000	-0,015770
479,000000	-0,015800
478,000000	-0,015921
477,000000	-0,015682
476,000000	-0,015770
475,000000	-0,015431
474,000000	-0,015624
473,000000	-0,015812
472,000000	-0,015645
471,000000	-0,015511
470,000000	-0,015418
469,000000	-0,015133
468,000000	-0,014823
467,000000	-0,014588
466,000000	-0,014495
465,000000	-0,014193
464,000000	-0,014029
463,000000	-0,013928
462,000000	-0,013983
461,000000	-0,013957
460,000000	-0,013301
459,000000	-0,013111
458,000000	-0,012702
457,000000	-0,012926
456,000000	-0,012605
455,000000	-0,012572
454,000000	-0,012597
453,000000	-0,012386
452,000000	-0,012546
451,000000	-0,012289
450,000000	-0,012327
449,000000	-0,011930
448,000000	-0,011909
447,000000	-0,011532
446,000000	-0,011503
445,000000	-0,011334
444,000000	-0,011325
443,000000	-0,011097
442,000000	-0,010970
441,000000	-0,010194
440,000000	-0,010118
439,000000	-0,010122
438,000000	-0,009566
437,000000	-0,009302
436,000000	-0,008987
435,000000	-0,009017
434,000000	-0,009077
433,000000	-0,009136
432,000000	-0,009090
431,000000	-0,008962
430,000000	-0,008353
429,000000	-0,008515
428,000000	-0,008749
427,000000	-0,008694
426,000000	-0,008294
425,000000	-0,008178
424,000000	-0,008285
423,000000	-0,008553
422,000000	-0,008758
421,000000	-0,007453
420,000000	-0,007765
419,000000	-0,007551
418,000000	-0,007901
417,000000	-0,007850
416,000000	-0,008012
415,000000	-0,008161
414,000000	-0,008140
413,000000	-0,008127
412,000000	-0,008174
411,000000	-0,008319
410,000000	-0,008340
409,000000	-0,008455
408,000000	-0,008370
407,000000	-0,008570
406,000000	-0,008702
405,000000	-0,008532
404,000000	-0,008766
403,000000	-0,008898
402,000000	-0,008673
401,000000	-0,009234
400,000000	-0,009098
399,000000	-0,009272
398,000000	-0,009115
397,000000	-0,009234
396,000000	-0,009447
395,000000	-0,009621
394,000000	-0,009527
393,000000	-0,009778
392,000000	-0,009905
391,000000	-0,010092
390,000000	-0,010168
