PE UV       SUBTECH     SPECTRUM    ASCII       PEDS        4.00        
   -1
branco.Sample.Raw.asc
20/08/25
15:41:45.00
20/08/25
15:41:45.00
Analyst

390,000000
1
Lambda 25
501s11081509
PerkinElmer UV WinLab 6.0.3.0730 / Lambda25 1.27

480
2
1
0
0
Both on
1
1
1
None
0
0
0
0
 
 
0
0
0
0
0
 
 
 
0
 
0
326
0
 
0
 
 
 
0
0
0
 
0
 
 
 
0
 
 
0
0
0
0
0
 
 
 
 
0
0


#HDR
-1
-1
#GR
nm
A
1.0
0.0
700,000000
-1,000000
311
8
0,000336
-0,000758
#DATA
700,000000	-0,000233
699,000000	-0,000278
698,000000	-0,000156
697,000000	0,000057
696,000000	-0,000152
695,000000	0,000025
694,000000	-0,000184
693,000000	0,000049
692,000000	-0,000037
691,000000	0,000025
690,000000	-0,000057
689,000000	-0,000115
688,000000	0,000123
687,000000	-0,000012
686,000000	-0,000004
685,000000	-0,000218
684,000000	0,000037
683,000000	-0,000201
682,000000	-0,000345
681,000000	-0,000160
680,000000	0,000041
679,000000	-0,000185
678,000000	-0,000082
677,000000	0,000062
676,000000	-0,000276
675,000000	-0,000156
674,000000	0,000148
673,000000	-0,000082
672,000000	0,000161
671,000000	-0,000004
670,000000	0,000062
669,000000	0,000317
668,000000	0,000082
667,000000	-0,000136
666,000000	0,000132
665,000000	-0,000004
664,000000	-0,000136
663,000000	-0,000136
662,000000	0,000182
661,000000	-0,000017
660,000000	0,000165
659,000000	-0,000186
658,000000	-0,000256
657,000000	-0,000252
656,000000	-0,000074
655,000000	-0,000190
654,000000	-0,000186
653,000000	-0,000256
652,000000	-0,000376
651,000000	0,000012
650,000000	-0,000306
649,000000	0,000017
648,000000	-0,000166
647,000000	-0,000017
646,000000	0,000004
645,000000	-0,000323
644,000000	-0,000095
643,000000	-0,000207
642,000000	-0,000116
641,000000	-0,000294
640,000000	0,000070
639,000000	0,000191
638,000000	-0,000017
637,000000	0,000124
636,000000	0,000025
635,000000	-0,000182
634,000000	0,000017
633,000000	-0,000095
632,000000	0,000137
631,000000	0,000116
630,000000	-0,000236
629,000000	0,000025
628,000000	0,000133
627,000000	-0,000340
626,000000	-0,000199
625,000000	-0,000058
624,000000	-0,000187
623,000000	-0,000062
622,000000	0,000083
621,000000	-0,000029
620,000000	-0,000095
619,000000	-0,000149
618,000000	-0,000191
617,000000	0,000037
616,000000	-0,000091
615,000000	-0,000075
614,000000	-0,000046
613,000000	0,000071
612,000000	-0,000149
611,000000	0,000162
610,000000	0,000220
609,000000	-0,000004
608,000000	-0,000025
607,000000	0,000178
606,000000	-0,000133
605,000000	-0,000037
604,000000	-0,000062
603,000000	-0,000125
602,000000	0,000137
601,000000	0,000075
600,000000	0,000120
599,000000	0,000166
598,000000	0,000012
597,000000	-0,000137
596,000000	-0,000124
595,000000	0,000029
594,000000	-0,000021
593,000000	0,000054
592,000000	-0,000328
591,000000	0,000012
590,000000	-0,000025
589,000000	-0,000195
588,000000	-0,000012
587,000000	-0,000225
586,000000	-0,000133
585,000000	-0,000334
584,000000	-0,000409
583,000000	0,000059
582,000000	0,000121
581,000000	-0,000163
580,000000	-0,000256
579,000000	-0,000223
578,000000	-0,000311
577,000000	-0,000059
576,000000	-0,000210
575,000000	-0,000126
574,000000	0,000072
573,000000	-0,000013
572,000000	-0,000063
571,000000	-0,000355
570,000000	0,000165
569,000000	-0,000270
568,000000	-0,000258
567,000000	-0,000359
566,000000	-0,000275
565,000000	-0,000034
564,000000	-0,000194
563,000000	-0,000203
562,000000	0,000068
561,000000	0,000030
560,000000	0,000127
559,000000	-0,000199
558,000000	-0,000406
557,000000	0,000266
556,000000	-0,000123
555,000000	0,000063
554,000000	-0,000038
553,000000	-0,000021
552,000000	-0,000101
551,000000	-0,000135
550,000000	-0,000410
549,000000	-0,000030
548,000000	-0,000148
547,000000	0,000241
546,000000	0,000046
545,000000	-0,000080
544,000000	-0,000021
543,000000	0,000220
542,000000	-0,000046
541,000000	-0,000110
540,000000	-0,000059
539,000000	-0,000249
538,000000	-0,000317
537,000000	0,000021
536,000000	0,000135
535,000000	0,000165
534,000000	-0,000063
533,000000	-0,000093
532,000000	0,000000
531,000000	0,000118
530,000000	-0,000101
529,000000	-0,000127
528,000000	0,000215
527,000000	-0,000013
526,000000	-0,000262
525,000000	0,000203
524,000000	0,000004
523,000000	-0,000046
522,000000	0,000198
521,000000	-0,000316
520,000000	0,000017
519,000000	-0,000126
518,000000	-0,000181
517,000000	-0,000110
516,000000	0,000282
515,000000	0,000169
514,000000	0,000240
513,000000	0,000152
512,000000	0,000076
511,000000	0,000164
510,000000	-0,000013
509,000000	-0,000059
508,000000	-0,000050
507,000000	-0,000160
506,000000	-0,000143
505,000000	0,000046
504,000000	-0,000097
503,000000	0,000004
502,000000	0,000000
501,000000	0,000151
500,000000	0,000223
499,000000	-0,000021
498,000000	0,000063
497,000000	0,000088
496,000000	0,000101
495,000000	0,000063
494,000000	0,000315
493,000000	0,000084
492,000000	0,000336
491,000000	-0,000084
490,000000	-0,000314
489,000000	-0,000034
488,000000	0,000000
487,000000	-0,000251
486,000000	0,000214
485,000000	0,000071
484,000000	-0,000021
483,000000	0,000272
482,000000	-0,000075
481,000000	0,000297
480,000000	-0,000034
479,000000	-0,000017
478,000000	0,000067
477,000000	-0,000214
476,000000	-0,000113
475,000000	-0,000159
474,000000	-0,000008
473,000000	0,000159
472,000000	0,000029
471,000000	-0,000218
470,000000	0,000000
469,000000	-0,000088
468,000000	0,000164
467,000000	-0,000248
466,000000	0,000046
465,000000	-0,000210
464,000000	-0,000479
463,000000	0,000038
462,000000	0,000160
461,000000	0,000000
460,000000	-0,000109
459,000000	-0,000190
458,000000	-0,000523
457,000000	0,000055
456,000000	-0,000321
455,000000	0,000072
454,000000	0,000063
453,000000	-0,000148
452,000000	0,000030
451,000000	-0,000359
450,000000	0,000173
449,000000	-0,000435
448,000000	-0,000283
447,000000	-0,000245
446,000000	-0,000245
445,000000	-0,000254
444,000000	-0,000034
443,000000	0,000178
442,000000	0,000136
441,000000	-0,000420
440,000000	-0,000242
439,000000	-0,000199
438,000000	-0,000251
437,000000	-0,000370
436,000000	-0,000306
435,000000	-0,000463
434,000000	-0,000157
433,000000	0,000004
432,000000	0,000060
431,000000	-0,000238
430,000000	-0,000758
429,000000	-0,000506
428,000000	-0,000026
427,000000	-0,000064
426,000000	-0,000115
425,000000	-0,000311
424,000000	-0,000405
423,000000	-0,000298
422,000000	-0,000179
421,000000	-0,000273
420,000000	0,000043
419,000000	-0,000397
418,000000	-0,000047
417,000000	-0,000277
416,000000	-0,000026
415,000000	0,000166
414,000000	0,000081
413,000000	-0,000281
412,000000	-0,000247
411,000000	-0,000234
410,000000	-0,000141
409,000000	-0,000217
408,000000	-0,000307
407,000000	-0,000294
406,000000	-0,000085
405,000000	-0,000557
404,000000	-0,000442
403,000000	-0,000370
402,000000	-0,000540
401,000000	-0,000094
400,000000	-0,000306
399,000000	-0,000123
398,000000	-0,000026
397,000000	-0,000489
396,000000	-0,000234
395,000000	-0,000471
394,000000	-0,000543
393,000000	-0,000365
392,000000	-0,000127
391,000000	-0,000102
390,000000	0,000098
