PE UV       SUBTECH     SPECTRUM    ASCII       PEDS        4.00        
   -1
100% or 0 Absorbance Baseline.Correction.Raw.asc
20/08/26
11:44:52.00
20/08/26
11:44:52.00
Analyst

390,000000
1
Lambda 25
501s11081509
PerkinElmer UV WinLab 6.0.3.0730 / Lambda25 1.27

480
0
1
0
0
Both on
0
1
1
None
0
0
0
0
 
 
0
0
0
0
0
 
 
 
0
 
0
326
0
 
0
 
 
 
0
0
0
 
0
 
 
 
0
 
 
0
0
0
0
0
 
 
 
 
0
0


#HDR
-1
-1
#GR
nm
A
1.0
0.0
700,000000
-1,000000
311
8
-0,008213
-0,026264
#DATA
700,000000	-0,026264
699,000000	-0,026108
698,000000	-0,025904
697,000000	-0,025879
696,000000	-0,025621
695,000000	-0,025756
694,000000	-0,025457
693,000000	-0,025371
692,000000	-0,025154
691,000000	-0,025076
690,000000	-0,025035
689,000000	-0,024966
688,000000	-0,024843
687,000000	-0,024728
686,000000	-0,024523
685,000000	-0,024531
684,000000	-0,024313
683,000000	-0,024428
682,000000	-0,024441
681,000000	-0,024141
680,000000	-0,024198
679,000000	-0,024108
678,000000	-0,024001
677,000000	-0,024067
676,000000	-0,023730
675,000000	-0,023429
674,000000	-0,023327
673,000000	-0,023466
672,000000	-0,023298
671,000000	-0,023442
670,000000	-0,023310
669,000000	-0,023174
668,000000	-0,022985
667,000000	-0,022857
666,000000	-0,022560
665,000000	-0,022350
664,000000	-0,022383
663,000000	-0,022234
662,000000	-0,022156
661,000000	-0,022230
660,000000	-0,021925
659,000000	-0,022267
658,000000	-0,022012
657,000000	-0,021772
656,000000	-0,021789
655,000000	-0,021689
654,000000	-0,021681
653,000000	-0,021553
652,000000	-0,021483
651,000000	-0,021450
650,000000	-0,021483
649,000000	-0,021384
648,000000	-0,021384
647,000000	-0,021227
646,000000	-0,020953
645,000000	-0,021028
644,000000	-0,020912
643,000000	-0,020858
642,000000	-0,020933
641,000000	-0,020838
640,000000	-0,020974
639,000000	-0,020953
638,000000	-0,020726
637,000000	-0,020862
636,000000	-0,020622
635,000000	-0,020593
634,000000	-0,020631
633,000000	-0,020614
632,000000	-0,020515
631,000000	-0,020444
630,000000	-0,020556
629,000000	-0,020701
628,000000	-0,020539
627,000000	-0,020452
626,000000	-0,020394
625,000000	-0,020436
624,000000	-0,020370
623,000000	-0,020415
622,000000	-0,020336
621,000000	-0,020428
620,000000	-0,020560
619,000000	-0,020527
618,000000	-0,020564
617,000000	-0,020519
616,000000	-0,020320
615,000000	-0,020191
614,000000	-0,020216
613,000000	-0,020216
612,000000	-0,020307
611,000000	-0,020332
610,000000	-0,020233
609,000000	-0,020312
608,000000	-0,020299
607,000000	-0,020365
606,000000	-0,020125
605,000000	-0,020303
604,000000	-0,020121
603,000000	-0,020324
602,000000	-0,020336
601,000000	-0,020457
600,000000	-0,020560
599,000000	-0,020457
598,000000	-0,020490
597,000000	-0,020436
596,000000	-0,020519
595,000000	-0,020651
594,000000	-0,020494
593,000000	-0,020241
592,000000	-0,020146
591,000000	-0,020084
590,000000	-0,019685
589,000000	-0,019627
588,000000	-0,019378
587,000000	-0,018730
586,000000	-0,018334
585,000000	-0,018018
584,000000	-0,017505
583,000000	-0,017171
582,000000	-0,016870
581,000000	-0,016494
580,000000	-0,015909
579,000000	-0,015553
578,000000	-0,015142
577,000000	-0,014516
576,000000	-0,013974
575,000000	-0,013768
574,000000	-0,013436
573,000000	-0,013149
572,000000	-0,013103
571,000000	-0,013006
570,000000	-0,012799
569,000000	-0,012820
568,000000	-0,012938
567,000000	-0,012816
566,000000	-0,012749
565,000000	-0,012567
564,000000	-0,012259
563,000000	-0,012356
562,000000	-0,012272
561,000000	-0,012268
560,000000	-0,012436
559,000000	-0,012116
558,000000	-0,012504
557,000000	-0,012230
556,000000	-0,012420
555,000000	-0,012297
554,000000	-0,012483
553,000000	-0,012209
552,000000	-0,012525
551,000000	-0,012373
550,000000	-0,012398
549,000000	-0,012377
548,000000	-0,012542
547,000000	-0,012669
546,000000	-0,012947
545,000000	-0,012863
544,000000	-0,013002
543,000000	-0,012850
542,000000	-0,012981
541,000000	-0,013099
540,000000	-0,012947
539,000000	-0,013099
538,000000	-0,013347
537,000000	-0,013292
536,000000	-0,013423
535,000000	-0,013402
534,000000	-0,013309
533,000000	-0,013457
532,000000	-0,013579
531,000000	-0,013364
530,000000	-0,013675
529,000000	-0,013221
528,000000	-0,013414
527,000000	-0,013267
526,000000	-0,013267
525,000000	-0,013516
524,000000	-0,013440
523,000000	-0,013617
522,000000	-0,013776
521,000000	-0,013537
520,000000	-0,013545
519,000000	-0,013705
518,000000	-0,013663
517,000000	-0,013713
516,000000	-0,013747
515,000000	-0,013856
514,000000	-0,013776
513,000000	-0,013810
512,000000	-0,014105
511,000000	-0,014193
510,000000	-0,014268
509,000000	-0,014197
508,000000	-0,014424
507,000000	-0,014374
506,000000	-0,014504
505,000000	-0,014869
504,000000	-0,014814
503,000000	-0,014890
502,000000	-0,015028
501,000000	-0,015138
500,000000	-0,015108
499,000000	-0,015108
498,000000	-0,015146
497,000000	-0,015184
496,000000	-0,015540
495,000000	-0,015607
494,000000	-0,015636
493,000000	-0,015615
492,000000	-0,015900
491,000000	-0,015611
490,000000	-0,016114
489,000000	-0,015992
488,000000	-0,016017
487,000000	-0,016256
486,000000	-0,016273
485,000000	-0,016285
484,000000	-0,016461
483,000000	-0,016411
482,000000	-0,016490
481,000000	-0,016444
480,000000	-0,016540
479,000000	-0,016360
478,000000	-0,016511
477,000000	-0,016298
476,000000	-0,016448
475,000000	-0,016469
474,000000	-0,016503
473,000000	-0,016314
472,000000	-0,016310
471,000000	-0,016227
470,000000	-0,016005
469,000000	-0,015976
468,000000	-0,015661
467,000000	-0,015590
466,000000	-0,015460
465,000000	-0,015058
464,000000	-0,014982
463,000000	-0,014907
462,000000	-0,014672
461,000000	-0,014483
460,000000	-0,014353
459,000000	-0,014369
458,000000	-0,013739
457,000000	-0,013814
456,000000	-0,013406
455,000000	-0,013372
454,000000	-0,013659
453,000000	-0,013701
452,000000	-0,013587
451,000000	-0,013570
450,000000	-0,013478
449,000000	-0,013280
448,000000	-0,013111
447,000000	-0,012732
446,000000	-0,012538
445,000000	-0,012706
444,000000	-0,012272
443,000000	-0,012073
442,000000	-0,012086
441,000000	-0,011693
440,000000	-0,011507
439,000000	-0,011046
438,000000	-0,010732
437,000000	-0,010694
436,000000	-0,010470
435,000000	-0,010338
434,000000	-0,010571
433,000000	-0,010631
432,000000	-0,009948
431,000000	-0,010007
430,000000	-0,010135
429,000000	-0,009867
428,000000	-0,009829
427,000000	-0,009655
426,000000	-0,009727
425,000000	-0,010109
424,000000	-0,010194
423,000000	-0,009880
422,000000	-0,009948
421,000000	-0,008238
420,000000	-0,008259
419,000000	-0,008213
418,000000	-0,008315
417,000000	-0,008643
416,000000	-0,008643
415,000000	-0,008707
414,000000	-0,008834
413,000000	-0,008698
412,000000	-0,008941
411,000000	-0,009111
410,000000	-0,008847
409,000000	-0,008970
408,000000	-0,009187
407,000000	-0,009298
406,000000	-0,009281
405,000000	-0,009527
404,000000	-0,009357
403,000000	-0,009566
402,000000	-0,009506
401,000000	-0,009587
400,000000	-0,009744
399,000000	-0,009969
398,000000	-0,010016
397,000000	-0,010151
396,000000	-0,010347
395,000000	-0,010533
394,000000	-0,010338
393,000000	-0,010503
392,000000	-0,010639
391,000000	-0,010842
390,000000	-0,010703
