PE UV       SUBTECH     SPECTRUM    ASCII       PEDS        4.00        
   -1
branco.Sample.Raw.asc
20/08/26
11:46:12.00
20/08/26
11:46:12.00
Analyst

390,000000
1
Lambda 25
501s11081509
PerkinElmer UV WinLab 6.0.3.0730 / Lambda25 1.27

480
2
1
0
0
Both on
1
1
1
None
0
0
0
0
 
 
0
0
0
0
0
 
 
 
0
 
0
326
0
 
0
 
 
 
0
0
0
 
0
 
 
 
0
 
 
0
0
0
0
0
 
 
 
 
0
0


#HDR
-1
-1
#GR
nm
A
1.0
0.0
700,000000
-1,000000
311
8
0,004208
0,000891
#DATA
700,000000	0,001199
699,000000	0,000970
698,000000	0,000934
697,000000	0,001098
696,000000	0,000996
695,000000	0,001258
694,000000	0,001083
693,000000	0,001206
692,000000	0,001014
691,000000	0,001129
690,000000	0,001178
689,000000	0,000973
688,000000	0,000891
687,000000	0,000978
686,000000	0,001048
685,000000	0,001241
684,000000	0,001123
683,000000	0,001913
682,000000	0,001876
681,000000	0,001556
680,000000	0,002071
679,000000	0,002038
678,000000	0,002043
677,000000	0,002088
676,000000	0,001949
675,000000	0,001748
674,000000	0,001794
673,000000	0,001798
672,000000	0,001790
671,000000	0,002042
670,000000	0,001935
669,000000	0,001910
668,000000	0,001920
667,000000	0,002024
666,000000	0,001739
665,000000	0,001645
664,000000	0,001583
663,000000	0,001517
662,000000	0,001534
661,000000	0,001575
660,000000	0,001381
659,000000	0,001944
658,000000	0,001754
657,000000	0,001622
656,000000	0,001684
655,000000	0,001635
654,000000	0,001722
653,000000	0,001465
652,000000	0,001416
651,000000	0,001536
650,000000	0,001789
649,000000	0,001719
648,000000	0,001831
647,000000	0,001894
646,000000	0,001538
645,000000	0,001737
644,000000	0,001709
643,000000	0,001609
642,000000	0,001729
641,000000	0,001480
640,000000	0,001854
639,000000	0,001821
638,000000	0,001801
637,000000	0,001833
636,000000	0,001901
635,000000	0,001880
634,000000	0,001847
633,000000	0,001610
632,000000	0,001814
631,000000	0,001598
630,000000	0,001539
629,000000	0,001909
628,000000	0,001752
627,000000	0,001956
626,000000	0,001785
625,000000	0,001802
624,000000	0,001711
623,000000	0,001715
622,000000	0,001549
621,000000	0,001740
620,000000	0,001743
619,000000	0,001777
618,000000	0,002138
617,000000	0,001947
616,000000	0,001748
615,000000	0,001895
614,000000	0,001890
613,000000	0,001736
612,000000	0,001861
611,000000	0,001732
610,000000	0,001924
609,000000	0,001919
608,000000	0,001994
607,000000	0,002039
606,000000	0,001716
605,000000	0,002065
604,000000	0,001587
603,000000	0,001861
602,000000	0,001594
601,000000	0,001756
600,000000	0,001968
599,000000	0,001952
598,000000	0,002022
597,000000	0,001935
596,000000	0,002134
595,000000	0,002196
594,000000	0,002018
593,000000	0,001774
592,000000	0,001720
591,000000	0,001766
590,000000	0,001797
589,000000	0,002055
588,000000	0,001973
587,000000	0,001922
586,000000	0,001790
585,000000	0,001733
584,000000	0,001647
583,000000	0,002013
582,000000	0,001901
581,000000	0,002129
580,000000	0,001876
579,000000	0,002012
578,000000	0,002136
577,000000	0,002232
576,000000	0,002040
575,000000	0,002096
574,000000	0,002089
573,000000	0,002082
572,000000	0,002201
571,000000	0,002265
570,000000	0,002253
569,000000	0,002601
568,000000	0,002541
567,000000	0,002516
566,000000	0,002292
565,000000	0,002123
564,000000	0,002358
563,000000	0,002230
562,000000	0,002197
561,000000	0,002239
560,000000	0,002569
559,000000	0,001896
558,000000	0,002382
557,000000	0,002104
556,000000	0,002302
555,000000	0,001849
554,000000	0,002280
553,000000	0,001964
552,000000	0,002272
551,000000	0,002366
550,000000	0,002179
549,000000	0,001976
548,000000	0,002259
547,000000	0,002182
546,000000	0,002274
545,000000	0,002308
544,000000	0,002367
543,000000	0,002139
542,000000	0,002507
541,000000	0,002688
540,000000	0,002303
539,000000	0,002442
538,000000	0,002509
537,000000	0,002628
536,000000	0,002301
535,000000	0,002263
534,000000	0,002035
533,000000	0,002415
532,000000	0,002563
531,000000	0,002458
530,000000	0,002545
529,000000	0,002196
528,000000	0,002271
527,000000	0,002209
526,000000	0,002048
525,000000	0,002216
524,000000	0,002479
523,000000	0,002372
522,000000	0,002642
521,000000	0,002516
520,000000	0,002393
519,000000	0,002181
518,000000	0,002130
517,000000	0,002173
516,000000	0,002257
515,000000	0,002510
514,000000	0,002189
513,000000	0,002164
512,000000	0,002390
511,000000	0,002246
510,000000	0,002723
509,000000	0,002373
508,000000	0,002346
507,000000	0,002169
506,000000	0,002316
505,000000	0,002458
504,000000	0,002530
503,000000	0,002513
502,000000	0,002600
501,000000	0,002342
500,000000	0,002828
499,000000	0,002667
498,000000	0,002498
497,000000	0,002671
496,000000	0,002682
495,000000	0,002593
494,000000	0,002690
493,000000	0,002778
492,000000	0,002814
491,000000	0,002513
490,000000	0,002901
489,000000	0,002637
488,000000	0,002653
487,000000	0,002795
486,000000	0,002728
485,000000	0,002888
484,000000	0,002537
483,000000	0,002857
482,000000	0,002688
481,000000	0,002802
480,000000	0,002705
479,000000	0,002521
478,000000	0,002739
477,000000	0,002420
476,000000	0,002680
475,000000	0,002920
474,000000	0,002638
473,000000	0,002769
472,000000	0,002706
471,000000	0,003019
470,000000	0,002902
469,000000	0,002835
468,000000	0,002837
467,000000	0,002977
466,000000	0,002948
465,000000	0,002727
464,000000	0,002993
463,000000	0,003116
462,000000	0,003342
461,000000	0,003086
460,000000	0,003188
459,000000	0,003391
458,000000	0,002955
457,000000	0,002836
456,000000	0,002937
455,000000	0,002784
454,000000	0,003248
453,000000	0,003371
452,000000	0,003304
451,000000	0,003211
450,000000	0,003369
449,000000	0,003383
448,000000	0,003461
447,000000	0,003132
446,000000	0,002904
445,000000	0,003545
444,000000	0,003570
443,000000	0,003533
442,000000	0,003758
441,000000	0,003519
440,000000	0,003892
439,000000	0,003281
438,000000	0,003749
437,000000	0,003365
436,000000	0,003606
435,000000	0,003534
434,000000	0,003964
433,000000	0,004023
432,000000	0,003666
431,000000	0,003486
430,000000	0,004208
429,000000	0,003868
428,000000	0,003868
427,000000	0,003835
426,000000	0,003946
425,000000	0,004157
424,000000	0,004173
423,000000	0,004078
422,000000	0,003824
421,000000	0,002333
420,000000	0,001977
419,000000	0,002316
418,000000	0,002345
417,000000	0,002425
416,000000	0,002442
415,000000	0,002536
414,000000	0,002754
413,000000	0,002275
412,000000	0,002333
411,000000	0,002486
410,000000	0,002321
409,000000	0,002423
408,000000	0,002477
407,000000	0,002627
406,000000	0,002704
405,000000	0,002557
404,000000	0,002481
403,000000	0,002522
402,000000	0,002591
401,000000	0,002283
400,000000	0,002573
399,000000	0,002827
398,000000	0,002720
397,000000	0,002634
396,000000	0,002923
395,000000	0,003199
394,000000	0,002727
393,000000	0,002743
392,000000	0,003105
391,000000	0,002997
390,000000	0,002870
