PE UV       SUBTECH     SPECTRUM    ASCII       PEDS        4.00        
   -1
100% or 0 Absorbance Baseline.Correction.Raw.asc
20/09/09
15:51:03.00
20/09/09
15:51:03.00
Analyst

390,000000
1
Lambda 25
501s11081509
PerkinElmer UV WinLab 6.0.3.0730 / Lambda25 1.27

480
0
1
0
0
Both on
0
1
1
None
0
0
0
0
 
 
0
0
0
0
0
 
 
 
0
 
0
326
0
 
0
 
 
 
0
0
0
 
0
 
 
 
0
 
 
0
0
0
0
0
 
 
 
 
0
0


#HDR
-1
-1
#GR
nm
A
1.0
0.0
700,000000
-1,000000
311
8
-0,006877
-0,025199
#DATA
700,000000	-0,025199
699,000000	-0,025072
698,000000	-0,025039
697,000000	-0,025052
696,000000	-0,024781
695,000000	-0,024638
694,000000	-0,024617
693,000000	-0,024469
692,000000	-0,024289
691,000000	-0,024153
690,000000	-0,024067
689,000000	-0,023849
688,000000	-0,023820
687,000000	-0,023594
686,000000	-0,023565
685,000000	-0,023491
684,000000	-0,023236
683,000000	-0,022775
682,000000	-0,022865
681,000000	-0,022775
680,000000	-0,022441
679,000000	-0,022659
678,000000	-0,022350
677,000000	-0,022342
676,000000	-0,022309
675,000000	-0,021917
674,000000	-0,022069
673,000000	-0,021875
672,000000	-0,021830
671,000000	-0,021648
670,000000	-0,021628
669,000000	-0,021801
668,000000	-0,021913
667,000000	-0,021615
666,000000	-0,021218
665,000000	-0,021479
664,000000	-0,021111
663,000000	-0,021330
662,000000	-0,021082
661,000000	-0,021011
660,000000	-0,020916
659,000000	-0,020825
658,000000	-0,020589
657,000000	-0,020734
656,000000	-0,020573
655,000000	-0,020614
654,000000	-0,020668
653,000000	-0,020187
652,000000	-0,020195
651,000000	-0,020030
650,000000	-0,020399
649,000000	-0,020187
648,000000	-0,020241
647,000000	-0,020092
646,000000	-0,019884
645,000000	-0,019826
644,000000	-0,019756
643,000000	-0,019739
642,000000	-0,019818
641,000000	-0,019814
640,000000	-0,019793
639,000000	-0,019897
638,000000	-0,019673
637,000000	-0,019801
636,000000	-0,019777
635,000000	-0,019528
634,000000	-0,019644
633,000000	-0,019590
632,000000	-0,019586
631,000000	-0,019615
630,000000	-0,019586
629,000000	-0,019457
628,000000	-0,019407
627,000000	-0,019478
626,000000	-0,019540
625,000000	-0,019586
624,000000	-0,019465
623,000000	-0,019382
622,000000	-0,019228
621,000000	-0,019511
620,000000	-0,019366
619,000000	-0,019195
618,000000	-0,019187
617,000000	-0,019212
616,000000	-0,019145
615,000000	-0,019299
614,000000	-0,019237
613,000000	-0,019166
612,000000	-0,019112
611,000000	-0,019183
610,000000	-0,019141
609,000000	-0,019071
608,000000	-0,019012
607,000000	-0,019162
606,000000	-0,019216
605,000000	-0,019212
604,000000	-0,019428
603,000000	-0,019569
602,000000	-0,019519
601,000000	-0,019395
600,000000	-0,019611
599,000000	-0,019606
598,000000	-0,019818
597,000000	-0,019428
596,000000	-0,019718
595,000000	-0,019868
594,000000	-0,019648
593,000000	-0,019316
592,000000	-0,019320
591,000000	-0,018967
590,000000	-0,018771
589,000000	-0,018401
588,000000	-0,018030
587,000000	-0,017755
586,000000	-0,017401
585,000000	-0,017075
584,000000	-0,016507
583,000000	-0,016009
582,000000	-0,015469
581,000000	-0,014726
580,000000	-0,014411
579,000000	-0,013886
578,000000	-0,013562
577,000000	-0,013179
576,000000	-0,012905
575,000000	-0,012479
574,000000	-0,012124
573,000000	-0,012069
572,000000	-0,011579
571,000000	-0,011537
570,000000	-0,011266
569,000000	-0,011042
568,000000	-0,010978
567,000000	-0,010902
566,000000	-0,011126
565,000000	-0,011139
564,000000	-0,010898
563,000000	-0,010893
562,000000	-0,010961
561,000000	-0,010762
560,000000	-0,010669
559,000000	-0,011270
558,000000	-0,011194
557,000000	-0,011245
556,000000	-0,011147
555,000000	-0,010970
554,000000	-0,011160
553,000000	-0,010931
552,000000	-0,010957
551,000000	-0,011113
550,000000	-0,011338
549,000000	-0,011384
548,000000	-0,011304
547,000000	-0,011511
546,000000	-0,011528
545,000000	-0,011566
544,000000	-0,011570
543,000000	-0,011566
542,000000	-0,011740
541,000000	-0,011524
540,000000	-0,011718
539,000000	-0,011515
538,000000	-0,011862
537,000000	-0,011993
536,000000	-0,011811
535,000000	-0,011718
534,000000	-0,011976
533,000000	-0,011926
532,000000	-0,011938
531,000000	-0,012069
530,000000	-0,011752
529,000000	-0,011917
528,000000	-0,011938
527,000000	-0,011883
526,000000	-0,011993
525,000000	-0,012213
524,000000	-0,011883
523,000000	-0,011892
522,000000	-0,012111
521,000000	-0,012027
520,000000	-0,012297
519,000000	-0,011980
518,000000	-0,012361
517,000000	-0,012622
516,000000	-0,012420
515,000000	-0,012382
514,000000	-0,012664
513,000000	-0,012462
512,000000	-0,012512
511,000000	-0,012652
510,000000	-0,012740
509,000000	-0,012656
508,000000	-0,012867
507,000000	-0,012968
506,000000	-0,012820
505,000000	-0,013090
504,000000	-0,013086
503,000000	-0,013086
502,000000	-0,013292
501,000000	-0,013322
500,000000	-0,013579
499,000000	-0,013553
498,000000	-0,013587
497,000000	-0,013949
496,000000	-0,013848
495,000000	-0,014210
494,000000	-0,014109
493,000000	-0,014075
492,000000	-0,014348
491,000000	-0,014231
490,000000	-0,014395
489,000000	-0,014542
488,000000	-0,014701
487,000000	-0,014890
486,000000	-0,014546
485,000000	-0,014512
484,000000	-0,014831
483,000000	-0,014785
482,000000	-0,014483
481,000000	-0,015037
480,000000	-0,015041
479,000000	-0,015087
478,000000	-0,015175
477,000000	-0,014999
476,000000	-0,015020
475,000000	-0,014844
474,000000	-0,014865
473,000000	-0,014756
472,000000	-0,014751
471,000000	-0,014684
470,000000	-0,014512
469,000000	-0,014411
468,000000	-0,014079
467,000000	-0,013726
466,000000	-0,013802
465,000000	-0,013486
464,000000	-0,013233
463,000000	-0,013069
462,000000	-0,013014
461,000000	-0,012770
460,000000	-0,012559
459,000000	-0,012120
458,000000	-0,012179
457,000000	-0,011955
456,000000	-0,011697
455,000000	-0,011524
454,000000	-0,011456
453,000000	-0,011283
452,000000	-0,011473
451,000000	-0,011012
450,000000	-0,011359
449,000000	-0,011126
448,000000	-0,010876
447,000000	-0,010847
446,000000	-0,010275
445,000000	-0,010304
444,000000	-0,010168
443,000000	-0,009791
442,000000	-0,009659
441,000000	-0,009234
440,000000	-0,008949
439,000000	-0,008813
438,000000	-0,008379
437,000000	-0,007982
436,000000	-0,008221
435,000000	-0,007876
434,000000	-0,007675
433,000000	-0,007522
432,000000	-0,007718
431,000000	-0,007526
430,000000	-0,007475
429,000000	-0,007253
428,000000	-0,007368
427,000000	-0,007137
426,000000	-0,006941
425,000000	-0,007090
424,000000	-0,007142
423,000000	-0,007304
422,000000	-0,007082
421,000000	-0,006877
420,000000	-0,007086
419,000000	-0,007009
418,000000	-0,006936
417,000000	-0,007176
416,000000	-0,007342
415,000000	-0,007359
414,000000	-0,007385
413,000000	-0,007598
412,000000	-0,007624
411,000000	-0,007551
410,000000	-0,007918
409,000000	-0,007598
408,000000	-0,007829
407,000000	-0,007859
406,000000	-0,007876
405,000000	-0,007825
404,000000	-0,008119
403,000000	-0,008247
402,000000	-0,008404
401,000000	-0,008447
400,000000	-0,008468
399,000000	-0,008506
398,000000	-0,008515
397,000000	-0,008770
396,000000	-0,008868
395,000000	-0,008958
394,000000	-0,008890
393,000000	-0,009294
392,000000	-0,009021
391,000000	-0,009098
390,000000	-0,009315
