PE UV       SUBTECH     SPECTRUM    ASCII       PEDS        4.00        
   -1
22.Sample.Raw.asc
20/09/09
15:56:47.00
20/09/09
15:56:47.00
Analyst

390,000000
1
Lambda 25
501s11081509
PerkinElmer UV WinLab 6.0.3.0730 / Lambda25 1.27

480
2
1
0
0
Both on
1
1
1
None
0
0
0
0
 
 
0
0
0
0
0
 
 
 
0
 
0
326
0
 
0
 
 
 
0
0
0
 
0
 
 
 
0
 
 
0
0
0
0
0
 
 
 
 
0
0


#HDR
-1
-1
#GR
nm
A
1.0
0.0
700,000000
-1,000000
311
8
0,265218
0,003617
#DATA
700,000000	0,003617
699,000000	0,003746
698,000000	0,003681
697,000000	0,003900
696,000000	0,003757
695,000000	0,003986
694,000000	0,003966
693,000000	0,004017
692,000000	0,003956
691,000000	0,004082
690,000000	0,004016
689,000000	0,003865
688,000000	0,004006
687,000000	0,003909
686,000000	0,003822
685,000000	0,003964
684,000000	0,004032
683,000000	0,003820
682,000000	0,003762
681,000000	0,003954
680,000000	0,003740
679,000000	0,003917
678,000000	0,003978
677,000000	0,003920
676,000000	0,004191
675,000000	0,003936
674,000000	0,004181
673,000000	0,004274
672,000000	0,004342
671,000000	0,004076
670,000000	0,004289
669,000000	0,004667
668,000000	0,005004
667,000000	0,004636
666,000000	0,004335
665,000000	0,004567
664,000000	0,004629
663,000000	0,004856
662,000000	0,004541
661,000000	0,004776
660,000000	0,004857
659,000000	0,004607
658,000000	0,004538
657,000000	0,004679
656,000000	0,004689
655,000000	0,005040
654,000000	0,004826
653,000000	0,004693
652,000000	0,004832
651,000000	0,004745
650,000000	0,005299
649,000000	0,005004
648,000000	0,005246
647,000000	0,005471
646,000000	0,005217
645,000000	0,005318
644,000000	0,005290
643,000000	0,005437
642,000000	0,005281
641,000000	0,005394
640,000000	0,005302
639,000000	0,005528
638,000000	0,005480
637,000000	0,005773
636,000000	0,005870
635,000000	0,005970
634,000000	0,006162
633,000000	0,006196
632,000000	0,006133
631,000000	0,006529
630,000000	0,006525
629,000000	0,006514
628,000000	0,006553
627,000000	0,006670
626,000000	0,007070
625,000000	0,006972
624,000000	0,006881
623,000000	0,006937
622,000000	0,007007
621,000000	0,007328
620,000000	0,007258
619,000000	0,006987
618,000000	0,007392
617,000000	0,007346
616,000000	0,007461
615,000000	0,007741
614,000000	0,007768
613,000000	0,007752
612,000000	0,007770
611,000000	0,007875
610,000000	0,008036
609,000000	0,008198
608,000000	0,008111
607,000000	0,008341
606,000000	0,008488
605,000000	0,008645
604,000000	0,008941
603,000000	0,008994
602,000000	0,008922
601,000000	0,008963
600,000000	0,009340
599,000000	0,009353
598,000000	0,009624
597,000000	0,009544
596,000000	0,009919
595,000000	0,010226
594,000000	0,010278
593,000000	0,010154
592,000000	0,010452
591,000000	0,010311
590,000000	0,010290
589,000000	0,010470
588,000000	0,010696
587,000000	0,010720
586,000000	0,010793
585,000000	0,010956
584,000000	0,010855
583,000000	0,011009
582,000000	0,011272
581,000000	0,011162
580,000000	0,011559
579,000000	0,011305
578,000000	0,011750
577,000000	0,011921
576,000000	0,011989
575,000000	0,012322
574,000000	0,012233
573,000000	0,012708
572,000000	0,012496
571,000000	0,012667
570,000000	0,012723
569,000000	0,012643
568,000000	0,012797
567,000000	0,012760
566,000000	0,012998
565,000000	0,013311
564,000000	0,013380
563,000000	0,013489
562,000000	0,013784
561,000000	0,013961
560,000000	0,014126
559,000000	0,014693
558,000000	0,014783
557,000000	0,015123
556,000000	0,015218
555,000000	0,015001
554,000000	0,015328
553,000000	0,015296
552,000000	0,015703
551,000000	0,015619
550,000000	0,015782
549,000000	0,015898
548,000000	0,015963
547,000000	0,016091
546,000000	0,016376
545,000000	0,016462
544,000000	0,016660
543,000000	0,016655
542,000000	0,016772
541,000000	0,016719
540,000000	0,016882
539,000000	0,016934
538,000000	0,017206
537,000000	0,017324
536,000000	0,017441
535,000000	0,017529
534,000000	0,017989
533,000000	0,018119
532,000000	0,018123
531,000000	0,018285
530,000000	0,018506
529,000000	0,018534
528,000000	0,018661
527,000000	0,018853
526,000000	0,018936
525,000000	0,019403
524,000000	0,019347
523,000000	0,019334
522,000000	0,019726
521,000000	0,019756
520,000000	0,020212
519,000000	0,020241
518,000000	0,020661
517,000000	0,020887
516,000000	0,020928
515,000000	0,021009
514,000000	0,021474
513,000000	0,021537
512,000000	0,021650
511,000000	0,021794
510,000000	0,022264
509,000000	0,022575
508,000000	0,022772
507,000000	0,023198
506,000000	0,023157
505,000000	0,023952
504,000000	0,024255
503,000000	0,024616
502,000000	0,025032
501,000000	0,025508
500,000000	0,026006
499,000000	0,026249
498,000000	0,026350
497,000000	0,027141
496,000000	0,027193
495,000000	0,028245
494,000000	0,028377
493,000000	0,028927
492,000000	0,029731
491,000000	0,029897
490,000000	0,030462
489,000000	0,030929
488,000000	0,031431
487,000000	0,032198
486,000000	0,032112
485,000000	0,032684
484,000000	0,033380
483,000000	0,034282
482,000000	0,034138
481,000000	0,035525
480,000000	0,036007
479,000000	0,036446
478,000000	0,036986
477,000000	0,037371
476,000000	0,037864
475,000000	0,038310
474,000000	0,038822
473,000000	0,039411
472,000000	0,039839
471,000000	0,040675
470,000000	0,041153
469,000000	0,041718
468,000000	0,041807
467,000000	0,042088
466,000000	0,042521
465,000000	0,042842
464,000000	0,043259
463,000000	0,043877
462,000000	0,043929
461,000000	0,044301
460,000000	0,044903
459,000000	0,045082
458,000000	0,046131
457,000000	0,046368
456,000000	0,046919
455,000000	0,047750
454,000000	0,048495
453,000000	0,048719
452,000000	0,050232
451,000000	0,050822
450,000000	0,051845
449,000000	0,053131
448,000000	0,053911
447,000000	0,055246
446,000000	0,056032
445,000000	0,057163
444,000000	0,058535
443,000000	0,059933
442,000000	0,061882
441,000000	0,063146
440,000000	0,064802
439,000000	0,066954
438,000000	0,068530
437,000000	0,070490
436,000000	0,072946
435,000000	0,075027
434,000000	0,077424
433,000000	0,079679
432,000000	0,082437
431,000000	0,084852
430,000000	0,088172
429,000000	0,090851
428,000000	0,093713
427,000000	0,096182
426,000000	0,099164
425,000000	0,101899
424,000000	0,104584
423,000000	0,108162
422,000000	0,110622
421,000000	0,113170
420,000000	0,116162
419,000000	0,118903
418,000000	0,122186
417,000000	0,124930
416,000000	0,128344
415,000000	0,131425
414,000000	0,134745
413,000000	0,137991
412,000000	0,141242
411,000000	0,144782
410,000000	0,148606
409,000000	0,152158
408,000000	0,156411
407,000000	0,160064
406,000000	0,164381
405,000000	0,168523
404,000000	0,173387
403,000000	0,177934
402,000000	0,183153
401,000000	0,188140
400,000000	0,193602
399,000000	0,200052
398,000000	0,205885
397,000000	0,212078
396,000000	0,218245
395,000000	0,225183
394,000000	0,232726
393,000000	0,239902
392,000000	0,248034
391,000000	0,256328
390,000000	0,265218
