PE UV       SUBTECH     SPECTRUM    ASCII       PEDS        4.00        
   -1
23.Sample.Raw.asc
20/09/09
15:57:46.00
20/09/09
15:57:46.00
Analyst

390,000000
1
Lambda 25
501s11081509
PerkinElmer UV WinLab 6.0.3.0730 / Lambda25 1.27

480
2
1
0
0
Both on
1
1
1
None
0
0
0
0
 
 
0
0
0
0
0
 
 
 
0
 
0
326
0
 
0
 
 
 
0
0
0
 
0
 
 
 
0
 
 
0
0
0
0
0
 
 
 
 
0
0


#HDR
-1
-1
#GR
nm
A
1.0
0.0
700,000000
-1,000000
311
8
0,388502
0,002412
#DATA
700,000000	0,002412
699,000000	0,002689
698,000000	0,002784
697,000000	0,002900
696,000000	0,002959
695,000000	0,002936
694,000000	0,003035
693,000000	0,003094
692,000000	0,002975
691,000000	0,002993
690,000000	0,002923
689,000000	0,002929
688,000000	0,002966
687,000000	0,002988
686,000000	0,003030
685,000000	0,003134
684,000000	0,002912
683,000000	0,002575
682,000000	0,002906
681,000000	0,003052
680,000000	0,002552
679,000000	0,002928
678,000000	0,003113
677,000000	0,002968
676,000000	0,003014
675,000000	0,002950
674,000000	0,003427
673,000000	0,003320
672,000000	0,003396
671,000000	0,003106
670,000000	0,003560
669,000000	0,003508
668,000000	0,004036
667,000000	0,003860
666,000000	0,003642
665,000000	0,004070
664,000000	0,003760
663,000000	0,003925
662,000000	0,003785
661,000000	0,003807
660,000000	0,003749
659,000000	0,004051
658,000000	0,003861
657,000000	0,004002
656,000000	0,003953
655,000000	0,004053
654,000000	0,003843
653,000000	0,003601
652,000000	0,003919
651,000000	0,003849
650,000000	0,004277
649,000000	0,004333
648,000000	0,004634
647,000000	0,004447
646,000000	0,004311
645,000000	0,004391
644,000000	0,004316
643,000000	0,004501
642,000000	0,004412
641,000000	0,004521
640,000000	0,004362
639,000000	0,004692
638,000000	0,004703
637,000000	0,004815
636,000000	0,004727
635,000000	0,004751
634,000000	0,005069
633,000000	0,005107
632,000000	0,005326
631,000000	0,005443
630,000000	0,005401
629,000000	0,005449
628,000000	0,005639
627,000000	0,005764
626,000000	0,005759
625,000000	0,005868
624,000000	0,005756
623,000000	0,005602
622,000000	0,005629
621,000000	0,005865
620,000000	0,005871
619,000000	0,005806
618,000000	0,005793
617,000000	0,005802
616,000000	0,006076
615,000000	0,006453
614,000000	0,006164
613,000000	0,006190
612,000000	0,006241
611,000000	0,006303
610,000000	0,006439
609,000000	0,006339
608,000000	0,006293
607,000000	0,006569
606,000000	0,006712
605,000000	0,006623
604,000000	0,006852
603,000000	0,006863
602,000000	0,006965
601,000000	0,006937
600,000000	0,007157
599,000000	0,007064
598,000000	0,007411
597,000000	0,007270
596,000000	0,007620
595,000000	0,007921
594,000000	0,007959
593,000000	0,007703
592,000000	0,007842
591,000000	0,007675
590,000000	0,007971
589,000000	0,007885
588,000000	0,007862
587,000000	0,007863
586,000000	0,008158
585,000000	0,008275
584,000000	0,008205
583,000000	0,008261
582,000000	0,008306
581,000000	0,008235
580,000000	0,008502
579,000000	0,008336
578,000000	0,008811
577,000000	0,008806
576,000000	0,008936
575,000000	0,009109
574,000000	0,009207
573,000000	0,009286
572,000000	0,009167
571,000000	0,009613
570,000000	0,009640
569,000000	0,009291
568,000000	0,009517
567,000000	0,009696
566,000000	0,009921
565,000000	0,010158
564,000000	0,010433
563,000000	0,010229
562,000000	0,010280
561,000000	0,010458
560,000000	0,010469
559,000000	0,011570
558,000000	0,011598
557,000000	0,011775
556,000000	0,011860
555,000000	0,011778
554,000000	0,012008
553,000000	0,011975
552,000000	0,012227
551,000000	0,012423
550,000000	0,012747
549,000000	0,012911
548,000000	0,012848
547,000000	0,013335
546,000000	0,013299
545,000000	0,013573
544,000000	0,013808
543,000000	0,013900
542,000000	0,014139
541,000000	0,014024
540,000000	0,014170
539,000000	0,014387
538,000000	0,014729
537,000000	0,015009
536,000000	0,015002
535,000000	0,015075
534,000000	0,015710
533,000000	0,015786
532,000000	0,016062
531,000000	0,016465
530,000000	0,016086
529,000000	0,016708
528,000000	0,016882
527,000000	0,016964
526,000000	0,017443
525,000000	0,017566
524,000000	0,017817
523,000000	0,018041
522,000000	0,018424
521,000000	0,018247
520,000000	0,018760
519,000000	0,018897
518,000000	0,019502
517,000000	0,019812
516,000000	0,020034
515,000000	0,019890
514,000000	0,020619
513,000000	0,020602
512,000000	0,020587
511,000000	0,020823
510,000000	0,021142
509,000000	0,021217
508,000000	0,021734
507,000000	0,022043
506,000000	0,022220
505,000000	0,022831
504,000000	0,023138
503,000000	0,023009
502,000000	0,023522
501,000000	0,023739
500,000000	0,024053
499,000000	0,024317
498,000000	0,024672
497,000000	0,024953
496,000000	0,025258
495,000000	0,025740
494,000000	0,026308
493,000000	0,026597
492,000000	0,027044
491,000000	0,027110
490,000000	0,027493
489,000000	0,027841
488,000000	0,028301
487,000000	0,028808
486,000000	0,028670
485,000000	0,029081
484,000000	0,029697
483,000000	0,030051
482,000000	0,030041
481,000000	0,030676
480,000000	0,031122
479,000000	0,031971
478,000000	0,031937
477,000000	0,032570
476,000000	0,032857
475,000000	0,033003
474,000000	0,033304
473,000000	0,033935
472,000000	0,034707
471,000000	0,034995
470,000000	0,035551
469,000000	0,035957
468,000000	0,036209
467,000000	0,036236
466,000000	0,037071
465,000000	0,037540
464,000000	0,038077
463,000000	0,038318
462,000000	0,039111
461,000000	0,039319
460,000000	0,040125
459,000000	0,040283
458,000000	0,041488
457,000000	0,041706
456,000000	0,042393
455,000000	0,042798
454,000000	0,043637
453,000000	0,044161
452,000000	0,044900
451,000000	0,045500
450,000000	0,046430
449,000000	0,047088
448,000000	0,047575
447,000000	0,048534
446,000000	0,048896
445,000000	0,049705
444,000000	0,050483
443,000000	0,050983
442,000000	0,052152
441,000000	0,052960
440,000000	0,054104
439,000000	0,055440
438,000000	0,055751
437,000000	0,056616
436,000000	0,057993
435,000000	0,058964
434,000000	0,059634
433,000000	0,060755
432,000000	0,062338
431,000000	0,063255
430,000000	0,064549
429,000000	0,065791
428,000000	0,066956
427,000000	0,067888
426,000000	0,068676
425,000000	0,070260
424,000000	0,071433
423,000000	0,072952
422,000000	0,074278
421,000000	0,075383
420,000000	0,076825
419,000000	0,078265
418,000000	0,079479
417,000000	0,080972
416,000000	0,082613
415,000000	0,084198
414,000000	0,085865
413,000000	0,087491
412,000000	0,089405
411,000000	0,091171
410,000000	0,093364
409,000000	0,095068
408,000000	0,097509
407,000000	0,100157
406,000000	0,102647
405,000000	0,105588
404,000000	0,108988
403,000000	0,113100
402,000000	0,117615
401,000000	0,123063
400,000000	0,129774
399,000000	0,137676
398,000000	0,146610
397,000000	0,158400
396,000000	0,172791
395,000000	0,190831
394,000000	0,214011
393,000000	0,243350
392,000000	0,281562
391,000000	0,328998
390,000000	0,388502
