PE UV       SUBTECH     SPECTRUM    ASCII       PEDS        4.00        
   -1
27.Sample.Raw.asc
20/09/09
15:59:59.00
20/09/09
15:59:59.00
Analyst

390,000000
1
Lambda 25
501s11081509
PerkinElmer UV WinLab 6.0.3.0730 / Lambda25 1.27

480
2
1
0
0
Both on
1
1
1
None
0
0
0
0
 
 
0
0
0
0
0
 
 
 
0
 
0
326
0
 
0
 
 
 
0
0
0
 
0
 
 
 
0
 
 
0
0
0
0
0
 
 
 
 
0
0


#HDR
-1
-1
#GR
nm
A
1.0
0.0
700,000000
-1,000000
311
8
0,002182
0,000074
#DATA
700,000000	0,000332
699,000000	0,000513
698,000000	0,000464
697,000000	0,000681
696,000000	0,000558
695,000000	0,000509
694,000000	0,000587
693,000000	0,000612
692,000000	0,000464
691,000000	0,000436
690,000000	0,000534
689,000000	0,000387
688,000000	0,000428
687,000000	0,000444
686,000000	0,000560
685,000000	0,000461
684,000000	0,000503
683,000000	0,000301
682,000000	0,000251
681,000000	0,000334
680,000000	0,000276
679,000000	0,000499
678,000000	0,000136
677,000000	0,000120
676,000000	0,000528
675,000000	0,000074
674,000000	0,000624
673,000000	0,000450
672,000000	0,000587
671,000000	0,000405
670,000000	0,000422
669,000000	0,000955
668,000000	0,000897
667,000000	0,000769
666,000000	0,000509
665,000000	0,000927
664,000000	0,000642
663,000000	0,000969
662,000000	0,000658
661,000000	0,000650
660,000000	0,000717
659,000000	0,000592
658,000000	0,000319
657,000000	0,000754
656,000000	0,000460
655,000000	0,000626
654,000000	0,000717
653,000000	0,000245
652,000000	0,000651
651,000000	0,000253
650,000000	0,000755
649,000000	0,000697
648,000000	0,000651
647,000000	0,000506
646,000000	0,000656
645,000000	0,000498
644,000000	0,000332
643,000000	0,000428
642,000000	0,000399
641,000000	0,000556
640,000000	0,000544
639,000000	0,000610
638,000000	0,000390
637,000000	0,000864
636,000000	0,000660
635,000000	0,000723
634,000000	0,000885
633,000000	0,000694
632,000000	0,001018
631,000000	0,000694
630,000000	0,001093
629,000000	0,000973
628,000000	0,000869
627,000000	0,001143
626,000000	0,001093
625,000000	0,001143
624,000000	0,001089
623,000000	0,001027
622,000000	0,000728
621,000000	0,001239
620,000000	0,001023
619,000000	0,000836
618,000000	0,001028
617,000000	0,001023
616,000000	0,000765
615,000000	0,001190
614,000000	0,001132
613,000000	0,001048
612,000000	0,000999
611,000000	0,000957
610,000000	0,001048
609,000000	0,000982
608,000000	0,001140
607,000000	0,001169
606,000000	0,000953
605,000000	0,000869
604,000000	0,001273
603,000000	0,001047
602,000000	0,000948
601,000000	0,001031
600,000000	0,001235
599,000000	0,001126
598,000000	0,001317
597,000000	0,000844
596,000000	0,001363
595,000000	0,001425
594,000000	0,001235
593,000000	0,001073
592,000000	0,001373
591,000000	0,001136
590,000000	0,001174
589,000000	0,001046
588,000000	0,000826
587,000000	0,001014
586,000000	0,000965
585,000000	0,001058
584,000000	0,000858
583,000000	0,000783
582,000000	0,000768
581,000000	0,000449
580,000000	0,000938
579,000000	0,000918
578,000000	0,000990
577,000000	0,001008
576,000000	0,001131
575,000000	0,000959
574,000000	0,000947
573,000000	0,001006
572,000000	0,000703
571,000000	0,001215
570,000000	0,000623
569,000000	0,000572
568,000000	0,000716
567,000000	0,000729
566,000000	0,000830
565,000000	0,000903
564,000000	0,000606
563,000000	0,000462
562,000000	0,000725
561,000000	0,000704
560,000000	0,000729
559,000000	0,001293
558,000000	0,001110
557,000000	0,001225
556,000000	0,001064
555,000000	0,000665
554,000000	0,001098
553,000000	0,000572
552,000000	0,000920
551,000000	0,000618
550,000000	0,001195
549,000000	0,001012
548,000000	0,000885
547,000000	0,001063
546,000000	0,000919
545,000000	0,000703
544,000000	0,000821
543,000000	0,000728
542,000000	0,001151
541,000000	0,000800
540,000000	0,001024
539,000000	0,000635
538,000000	0,001020
537,000000	0,001053
536,000000	0,000728
535,000000	0,000537
534,000000	0,000850
533,000000	0,000964
532,000000	0,000986
531,000000	0,001184
530,000000	0,000690
529,000000	0,001265
528,000000	0,000833
527,000000	0,000901
526,000000	0,000973
525,000000	0,001078
524,000000	0,000859
523,000000	0,000867
522,000000	0,001057
521,000000	0,001015
520,000000	0,000926
519,000000	0,000723
518,000000	0,001023
517,000000	0,001200
516,000000	0,001107
515,000000	0,000667
514,000000	0,001238
513,000000	0,000790
512,000000	0,000511
511,000000	0,000570
510,000000	0,000671
509,000000	0,000523
508,000000	0,000612
507,000000	0,000878
506,000000	0,000485
505,000000	0,000637
504,000000	0,000780
503,000000	0,000696
502,000000	0,000679
501,000000	0,000493
500,000000	0,001045
499,000000	0,000691
498,000000	0,000695
497,000000	0,000859
496,000000	0,000707
495,000000	0,001006
494,000000	0,000884
493,000000	0,000804
492,000000	0,001128
491,000000	0,001023
490,000000	0,000883
489,000000	0,000950
488,000000	0,000988
487,000000	0,001332
486,000000	0,000542
485,000000	0,000563
484,000000	0,000706
483,000000	0,000706
482,000000	0,000349
481,000000	0,000945
480,000000	0,000756
479,000000	0,000840
478,000000	0,000949
477,000000	0,000697
476,000000	0,000874
475,000000	0,000554
474,000000	0,000617
473,000000	0,000693
472,000000	0,000639
471,000000	0,001017
470,000000	0,001093
469,000000	0,000887
468,000000	0,000972
467,000000	0,000488
466,000000	0,000775
465,000000	0,000653
464,000000	0,000459
463,000000	0,000586
462,000000	0,000434
461,000000	0,000696
460,000000	0,000701
459,000000	0,000744
458,000000	0,000862
457,000000	0,000528
456,000000	0,000262
455,000000	0,000427
454,000000	0,000665
453,000000	0,000190
452,000000	0,000542
451,000000	0,000224
450,000000	0,000762
449,000000	0,000720
448,000000	0,000521
447,000000	0,000852
446,000000	0,000526
445,000000	0,000611
444,000000	0,000475
443,000000	0,000421
442,000000	0,000178
441,000000	0,000238
440,000000	0,000145
439,000000	0,000750
438,000000	0,000537
437,000000	0,000183
436,000000	0,000768
435,000000	0,000533
434,000000	0,000431
433,000000	0,000436
432,000000	0,000538
431,000000	0,000555
430,000000	0,000525
429,000000	0,000611
428,000000	0,000478
427,000000	0,000423
426,000000	0,000184
425,000000	0,000633
424,000000	0,000316
423,000000	0,000496
422,000000	0,000633
421,000000	0,001241
420,000000	0,001258
419,000000	0,001447
418,000000	0,001207
417,000000	0,001163
416,000000	0,001317
415,000000	0,001510
414,000000	0,001450
413,000000	0,001745
412,000000	0,001663
411,000000	0,001608
410,000000	0,001812
409,000000	0,001479
408,000000	0,001538
407,000000	0,001311
406,000000	0,001508
405,000000	0,001410
404,000000	0,001507
403,000000	0,001742
402,000000	0,001699
401,000000	0,001643
400,000000	0,001626
399,000000	0,001638
398,000000	0,001608
397,000000	0,002168
396,000000	0,001838
395,000000	0,001842
394,000000	0,001855
393,000000	0,002015
392,000000	0,001705
391,000000	0,001687
390,000000	0,002182
