PE UV       SUBTECH     SPECTRUM    ASCII       PEDS        4.00        
   -1
28.Sample.Raw.asc
20/09/09
16:02:24.00
20/09/09
16:02:24.00
Analyst

390,000000
1
Lambda 25
501s11081509
PerkinElmer UV WinLab 6.0.3.0730 / Lambda25 1.27

480
2
1
0
0
Both on
1
1
1
None
0
0
0
0
 
 
0
0
0
0
0
 
 
 
0
 
0
326
0
 
0
 
 
 
0
0
0
 
0
 
 
 
0
 
 
0
0
0
0
0
 
 
 
 
0
0


#HDR
-1
-1
#GR
nm
A
1.0
0.0
700,000000
-1,000000
311
8
0,066489
0,001537
#DATA
700,000000	0,001646
699,000000	0,001799
698,000000	0,001808
697,000000	0,002042
696,000000	0,001879
695,000000	0,002048
694,000000	0,001987
693,000000	0,001913
692,000000	0,002141
691,000000	0,002137
690,000000	0,002080
689,000000	0,001837
688,000000	0,002143
687,000000	0,002086
686,000000	0,001876
685,000000	0,001946
684,000000	0,001828
683,000000	0,001540
682,000000	0,001742
681,000000	0,002103
680,000000	0,001537
679,000000	0,001979
678,000000	0,001591
677,000000	0,001682
676,000000	0,001894
675,000000	0,001696
674,000000	0,002056
673,000000	0,001854
672,000000	0,001929
671,000000	0,001888
670,000000	0,002079
669,000000	0,002161
668,000000	0,002539
667,000000	0,002274
666,000000	0,002031
665,000000	0,002354
664,000000	0,001945
663,000000	0,002205
662,000000	0,002007
661,000000	0,002207
660,000000	0,002091
659,000000	0,002208
658,000000	0,002022
657,000000	0,002237
656,000000	0,002168
655,000000	0,002192
654,000000	0,002055
653,000000	0,001920
652,000000	0,002057
651,000000	0,001987
650,000000	0,002431
649,000000	0,002069
648,000000	0,002573
647,000000	0,002212
646,000000	0,002192
645,000000	0,002205
644,000000	0,002122
643,000000	0,002155
642,000000	0,002234
641,000000	0,002021
640,000000	0,002171
639,000000	0,002325
638,000000	0,002143
637,000000	0,002284
636,000000	0,002413
635,000000	0,002068
634,000000	0,002343
633,000000	0,002268
632,000000	0,002415
631,000000	0,002682
630,000000	0,002836
629,000000	0,002733
628,000000	0,002817
627,000000	0,002858
626,000000	0,002594
625,000000	0,002920
624,000000	0,002574
623,000000	0,002779
622,000000	0,002529
621,000000	0,002741
620,000000	0,002796
619,000000	0,002718
618,000000	0,002877
617,000000	0,002697
616,000000	0,002760
615,000000	0,002721
614,000000	0,002901
613,000000	0,002755
612,000000	0,002844
611,000000	0,002697
610,000000	0,002789
609,000000	0,002831
608,000000	0,002995
607,000000	0,002802
606,000000	0,002885
605,000000	0,002609
604,000000	0,002950
603,000000	0,003171
602,000000	0,002816
601,000000	0,002921
600,000000	0,003150
599,000000	0,003070
598,000000	0,003428
597,000000	0,002963
596,000000	0,003421
595,000000	0,003470
594,000000	0,003342
593,000000	0,003369
592,000000	0,003462
591,000000	0,003452
590,000000	0,003336
589,000000	0,003234
588,000000	0,003149
587,000000	0,003335
586,000000	0,003359
585,000000	0,003395
584,000000	0,003273
583,000000	0,003400
582,000000	0,003328
581,000000	0,003211
580,000000	0,003446
579,000000	0,003111
578,000000	0,003597
577,000000	0,003498
576,000000	0,003556
575,000000	0,003798
574,000000	0,003635
573,000000	0,003720
572,000000	0,003550
571,000000	0,003759
570,000000	0,003544
569,000000	0,003524
568,000000	0,003819
567,000000	0,003461
566,000000	0,003720
565,000000	0,004138
564,000000	0,004042
563,000000	0,003953
562,000000	0,003909
561,000000	0,003988
560,000000	0,003985
559,000000	0,004894
558,000000	0,004843
557,000000	0,004843
556,000000	0,004810
555,000000	0,004807
554,000000	0,004899
553,000000	0,004915
552,000000	0,005107
551,000000	0,005298
550,000000	0,005356
549,000000	0,005621
548,000000	0,005454
547,000000	0,005692
546,000000	0,005687
545,000000	0,005832
544,000000	0,005717
543,000000	0,006094
542,000000	0,006392
541,000000	0,006090
540,000000	0,006190
539,000000	0,006108
538,000000	0,006566
537,000000	0,006894
536,000000	0,006639
535,000000	0,006847
534,000000	0,007036
533,000000	0,007286
532,000000	0,007385
531,000000	0,007791
530,000000	0,007508
529,000000	0,007815
528,000000	0,008159
527,000000	0,008289
526,000000	0,008399
525,000000	0,008825
524,000000	0,008522
523,000000	0,008888
522,000000	0,009060
521,000000	0,009252
520,000000	0,009760
519,000000	0,009646
518,000000	0,010354
517,000000	0,010802
516,000000	0,010509
515,000000	0,010765
514,000000	0,011026
513,000000	0,011165
512,000000	0,011147
511,000000	0,011741
510,000000	0,011647
509,000000	0,012018
508,000000	0,012342
507,000000	0,012946
506,000000	0,012886
505,000000	0,013338
504,000000	0,013625
503,000000	0,013799
502,000000	0,014397
501,000000	0,014705
500,000000	0,015271
499,000000	0,015525
498,000000	0,015332
497,000000	0,016244
496,000000	0,016217
495,000000	0,017007
494,000000	0,017155
493,000000	0,017542
492,000000	0,018156
491,000000	0,018267
490,000000	0,018544
489,000000	0,019372
488,000000	0,019527
487,000000	0,020410
486,000000	0,020171
485,000000	0,020534
484,000000	0,021060
483,000000	0,021636
482,000000	0,021686
481,000000	0,022673
480,000000	0,023314
479,000000	0,023671
478,000000	0,024153
477,000000	0,024372
476,000000	0,025050
475,000000	0,025314
474,000000	0,025722
473,000000	0,026250
472,000000	0,026831
471,000000	0,027492
470,000000	0,027588
469,000000	0,028509
468,000000	0,028918
467,000000	0,029194
466,000000	0,029779
465,000000	0,030261
464,000000	0,030664
463,000000	0,031137
462,000000	0,031703
461,000000	0,032285
460,000000	0,032628
459,000000	0,033100
458,000000	0,033825
457,000000	0,034259
456,000000	0,034921
455,000000	0,035197
454,000000	0,035813
453,000000	0,036407
452,000000	0,037031
451,000000	0,037155
450,000000	0,037852
449,000000	0,038599
448,000000	0,038822
447,000000	0,039552
446,000000	0,039579
445,000000	0,040292
444,000000	0,040701
443,000000	0,041228
442,000000	0,041611
441,000000	0,042281
440,000000	0,042798
439,000000	0,043202
438,000000	0,044077
437,000000	0,043954
436,000000	0,044726
435,000000	0,045203
434,000000	0,045462
433,000000	0,046053
432,000000	0,047209
431,000000	0,047398
430,000000	0,048037
429,000000	0,048226
428,000000	0,048828
427,000000	0,049166
426,000000	0,049333
425,000000	0,049684
424,000000	0,050887
423,000000	0,051429
422,000000	0,051615
421,000000	0,052229
420,000000	0,052771
419,000000	0,053182
418,000000	0,053201
417,000000	0,054025
416,000000	0,054870
415,000000	0,054877
414,000000	0,055431
413,000000	0,056154
412,000000	0,056248
411,000000	0,056904
410,000000	0,057481
409,000000	0,057643
408,000000	0,058239
407,000000	0,058552
406,000000	0,059018
405,000000	0,059392
404,000000	0,060117
403,000000	0,060406
402,000000	0,060750
401,000000	0,061087
400,000000	0,061697
399,000000	0,062315
398,000000	0,062781
397,000000	0,063258
396,000000	0,063759
395,000000	0,063928
394,000000	0,064106
393,000000	0,065073
392,000000	0,065393
391,000000	0,065900
390,000000	0,066489
