PE UV       SUBTECH     SPECTRUM    ASCII       PEDS        4.00        
   -1
31.Sample.Raw.asc
20/09/09
16:04:39.00
20/09/09
16:04:39.00
Analyst

390,000000
1
Lambda 25
501s11081509
PerkinElmer UV WinLab 6.0.3.0730 / Lambda25 1.27

480
2
1
0
0
Both on
1
1
1
None
0
0
0
0
 
 
0
0
0
0
0
 
 
 
0
 
0
326
0
 
0
 
 
 
0
0
0
 
0
 
 
 
0
 
 
0
0
0
0
0
 
 
 
 
0
0


#HDR
-1
-1
#GR
nm
A
1.0
0.0
700,000000
-1,000000
311
8
0,037835
-0,000025
#DATA
700,000000	0,000152
699,000000	0,000340
698,000000	0,000209
697,000000	0,000455
696,000000	0,000394
695,000000	0,000435
694,000000	0,000435
693,000000	0,000464
692,000000	0,000460
691,000000	0,000382
690,000000	0,000428
689,000000	0,000329
688,000000	0,000448
687,000000	0,000358
686,000000	0,000465
685,000000	0,000440
684,000000	0,000255
683,000000	-0,000025
682,000000	0,000066
681,000000	0,000280
680,000000	0,000161
679,000000	0,000392
678,000000	0,000272
677,000000	0,000256
676,000000	0,000371
675,000000	0,000173
674,000000	0,000516
673,000000	0,000302
672,000000	0,000405
671,000000	0,000219
670,000000	0,000475
669,000000	0,000599
668,000000	0,000988
667,000000	0,000765
666,000000	0,000377
665,000000	0,000807
664,000000	0,000526
663,000000	0,000530
662,000000	0,000397
661,000000	0,000638
660,000000	0,000547
659,000000	0,000534
658,000000	0,000302
657,000000	0,000476
656,000000	0,000381
655,000000	0,000535
654,000000	0,000547
653,000000	0,000108
652,000000	0,000344
651,000000	0,000328
650,000000	0,000647
649,000000	0,000631
648,000000	0,000722
647,000000	0,000643
646,000000	0,000415
645,000000	0,000490
644,000000	0,000316
643,000000	0,000291
642,000000	0,000353
641,000000	0,000357
640,000000	0,000502
639,000000	0,000764
638,000000	0,000411
637,000000	0,000735
636,000000	0,000702
635,000000	0,000632
634,000000	0,000498
633,000000	0,000619
632,000000	0,000819
631,000000	0,000993
630,000000	0,001081
629,000000	0,001102
628,000000	0,000990
627,000000	0,001123
626,000000	0,001214
625,000000	0,001002
624,000000	0,001081
623,000000	0,001035
622,000000	0,000907
621,000000	0,001127
620,000000	0,000852
619,000000	0,000882
618,000000	0,000953
617,000000	0,000869
616,000000	0,000986
615,000000	0,001123
614,000000	0,001040
613,000000	0,000840
612,000000	0,000894
611,000000	0,000765
610,000000	0,000690
609,000000	0,000961
608,000000	0,000828
607,000000	0,000957
606,000000	0,000978
605,000000	0,000886
604,000000	0,000898
603,000000	0,001002
602,000000	0,000760
601,000000	0,000777
600,000000	0,001168
599,000000	0,000997
598,000000	0,001367
597,000000	0,000915
596,000000	0,001293
595,000000	0,001450
594,000000	0,001397
593,000000	0,001111
592,000000	0,001260
591,000000	0,001182
590,000000	0,001049
589,000000	0,001188
588,000000	0,001009
587,000000	0,001094
586,000000	0,001199
585,000000	0,001024
584,000000	0,001176
583,000000	0,000951
582,000000	0,001015
581,000000	0,000925
580,000000	0,000900
579,000000	0,001053
578,000000	0,000999
577,000000	0,001012
576,000000	0,001017
575,000000	0,001124
574,000000	0,001112
573,000000	0,001350
572,000000	0,001012
571,000000	0,000999
570,000000	0,001059
569,000000	0,000941
568,000000	0,000877
567,000000	0,000644
566,000000	0,001178
565,000000	0,001200
564,000000	0,001192
563,000000	0,001060
562,000000	0,001374
561,000000	0,001269
560,000000	0,001214
559,000000	0,001730
558,000000	0,001688
557,000000	0,001649
556,000000	0,001599
555,000000	0,001387
554,000000	0,001539
553,000000	0,001170
552,000000	0,001319
551,000000	0,001459
550,000000	0,002014
549,000000	0,001840
548,000000	0,001845
547,000000	0,002022
546,000000	0,001810
545,000000	0,001941
544,000000	0,001737
543,000000	0,001576
542,000000	0,001881
541,000000	0,001623
540,000000	0,001919
539,000000	0,001661
538,000000	0,001613
537,000000	0,001956
536,000000	0,002012
535,000000	0,001809
534,000000	0,002130
533,000000	0,002143
532,000000	0,002394
531,000000	0,002177
530,000000	0,002114
529,000000	0,002356
528,000000	0,002283
527,000000	0,002326
526,000000	0,002351
525,000000	0,002932
524,000000	0,002398
523,000000	0,002373
522,000000	0,002601
521,000000	0,002648
520,000000	0,002689
519,000000	0,002364
518,000000	0,002871
517,000000	0,002993
516,000000	0,002943
515,000000	0,002922
514,000000	0,002874
513,000000	0,002879
512,000000	0,002667
511,000000	0,002564
510,000000	0,002746
509,000000	0,002526
508,000000	0,002995
507,000000	0,003007
506,000000	0,003025
505,000000	0,003104
504,000000	0,003232
503,000000	0,003393
502,000000	0,003468
501,000000	0,003272
500,000000	0,003750
499,000000	0,003449
498,000000	0,003287
497,000000	0,003581
496,000000	0,003607
495,000000	0,004075
494,000000	0,003779
493,000000	0,003792
492,000000	0,004384
491,000000	0,003982
490,000000	0,004298
489,000000	0,004326
488,000000	0,004236
487,000000	0,004429
486,000000	0,004254
485,000000	0,004123
484,000000	0,004451
483,000000	0,004646
482,000000	0,004238
481,000000	0,004915
480,000000	0,004745
479,000000	0,004970
478,000000	0,005253
477,000000	0,005026
476,000000	0,005238
475,000000	0,005214
474,000000	0,005269
473,000000	0,005403
472,000000	0,005513
471,000000	0,005731
470,000000	0,005648
469,000000	0,006156
468,000000	0,006101
467,000000	0,005889
466,000000	0,006400
465,000000	0,006460
464,000000	0,006203
463,000000	0,006351
462,000000	0,006642
461,000000	0,006595
460,000000	0,007104
459,000000	0,006854
458,000000	0,007222
457,000000	0,007195
456,000000	0,007505
455,000000	0,007560
454,000000	0,007746
453,000000	0,007452
452,000000	0,008547
451,000000	0,008082
450,000000	0,008455
449,000000	0,008973
448,000000	0,009143
447,000000	0,009351
446,000000	0,008922
445,000000	0,009449
444,000000	0,009357
443,000000	0,009860
442,000000	0,009959
441,000000	0,009716
440,000000	0,009849
439,000000	0,010497
438,000000	0,010586
437,000000	0,010557
436,000000	0,011031
435,000000	0,011281
434,000000	0,011264
433,000000	0,011601
432,000000	0,011982
431,000000	0,012400
430,000000	0,012538
429,000000	0,012487
428,000000	0,013007
427,000000	0,013626
426,000000	0,013024
425,000000	0,013420
424,000000	0,013891
423,000000	0,014393
422,000000	0,014497
421,000000	0,015128
420,000000	0,015634
419,000000	0,016031
418,000000	0,016256
417,000000	0,016562
416,000000	0,017030
415,000000	0,017323
414,000000	0,017886
413,000000	0,018313
412,000000	0,018815
411,000000	0,018779
410,000000	0,019645
409,000000	0,020062
408,000000	0,020511
407,000000	0,020814
406,000000	0,021646
405,000000	0,022201
404,000000	0,022652
403,000000	0,023611
402,000000	0,024638
401,000000	0,025132
400,000000	0,026210
399,000000	0,027223
398,000000	0,028171
397,000000	0,029299
396,000000	0,030259
395,000000	0,031380
394,000000	0,032283
393,000000	0,034009
392,000000	0,034952
391,000000	0,036349
390,000000	0,037835
