PE UV       SUBTECH     SPECTRUM    ASCII       PEDS        4.00        
   -1
32.Sample.Raw.asc
20/09/09
16:06:47.00
20/09/09
16:06:47.00
Analyst

390,000000
1
Lambda 25
501s11081509
PerkinElmer UV WinLab 6.0.3.0730 / Lambda25 1.27

480
2
1
0
0
Both on
1
1
1
None
0
0
0
0
 
 
0
0
0
0
0
 
 
 
0
 
0
326
0
 
0
 
 
 
0
0
0
 
0
 
 
 
0
 
 
0
0
0
0
0
 
 
 
 
0
0


#HDR
-1
-1
#GR
nm
A
1.0
0.0
700,000000
-1,000000
311
8
0,004663
0,000297
#DATA
700,000000	0,000763
699,000000	0,000734
698,000000	0,000812
697,000000	0,000854
696,000000	0,000858
695,000000	0,000871
694,000000	0,000871
693,000000	0,000892
692,000000	0,000974
691,000000	0,000934
690,000000	0,000880
689,000000	0,000724
688,000000	0,000984
687,000000	0,000762
686,000000	0,000704
685,000000	0,000712
684,000000	0,000672
683,000000	0,000643
682,000000	0,000808
681,000000	0,000610
680,000000	0,000297
679,000000	0,000635
678,000000	0,000599
677,000000	0,000524
676,000000	0,000487
675,000000	0,000339
674,000000	0,000835
673,000000	0,000756
672,000000	0,000872
671,000000	0,000782
670,000000	0,000985
669,000000	0,000939
668,000000	0,001336
667,000000	0,000869
666,000000	0,000836
665,000000	0,001113
664,000000	0,000696
663,000000	0,001068
662,000000	0,000861
661,000000	0,000928
660,000000	0,000945
659,000000	0,000953
658,000000	0,000609
657,000000	0,000895
656,000000	0,000763
655,000000	0,001116
654,000000	0,000970
653,000000	0,000693
652,000000	0,000780
651,000000	0,000598
650,000000	0,001195
649,000000	0,000847
648,000000	0,001096
647,000000	0,001017
646,000000	0,000922
645,000000	0,000681
644,000000	0,000843
643,000000	0,000860
642,000000	0,000835
641,000000	0,000789
640,000000	0,000752
639,000000	0,001080
638,000000	0,000602
637,000000	0,000772
636,000000	0,000964
635,000000	0,000902
634,000000	0,000981
633,000000	0,000956
632,000000	0,001135
631,000000	0,001164
630,000000	0,001251
629,000000	0,001198
628,000000	0,001277
627,000000	0,001285
626,000000	0,001464
625,000000	0,001455
624,000000	0,001589
623,000000	0,001339
622,000000	0,001311
621,000000	0,001489
620,000000	0,001402
619,000000	0,001044
618,000000	0,001111
617,000000	0,001261
616,000000	0,001211
615,000000	0,001506
614,000000	0,001240
613,000000	0,001186
612,000000	0,001157
611,000000	0,001269
610,000000	0,001169
609,000000	0,001070
608,000000	0,001124
607,000000	0,001144
606,000000	0,001311
605,000000	0,001127
604,000000	0,001381
603,000000	0,001152
602,000000	0,001206
601,000000	0,001256
600,000000	0,001364
599,000000	0,001297
598,000000	0,001530
597,000000	0,001268
596,000000	0,001351
595,000000	0,001713
594,000000	0,001589
593,000000	0,001260
592,000000	0,001686
591,000000	0,001395
590,000000	0,001437
589,000000	0,001292
588,000000	0,001256
587,000000	0,001102
586,000000	0,001513
585,000000	0,001288
584,000000	0,001319
583,000000	0,001392
582,000000	0,001020
581,000000	0,000815
580,000000	0,001241
579,000000	0,001281
578,000000	0,001151
577,000000	0,001194
576,000000	0,001262
575,000000	0,001276
574,000000	0,001057
573,000000	0,001451
572,000000	0,001241
571,000000	0,001156
570,000000	0,000962
569,000000	0,000937
568,000000	0,000979
567,000000	0,000746
566,000000	0,000890
565,000000	0,000780
564,000000	0,000924
563,000000	0,000958
562,000000	0,001005
561,000000	0,000789
560,000000	0,000793
559,000000	0,001390
558,000000	0,001344
557,000000	0,001318
556,000000	0,001374
555,000000	0,001153
554,000000	0,001272
553,000000	0,000916
552,000000	0,001175
551,000000	0,001204
550,000000	0,001390
549,000000	0,001504
548,000000	0,001229
547,000000	0,001487
546,000000	0,001288
545,000000	0,001181
544,000000	0,001228
543,000000	0,001101
542,000000	0,001232
541,000000	0,001037
540,000000	0,001160
539,000000	0,001097
538,000000	0,001240
537,000000	0,001129
536,000000	0,000888
535,000000	0,000817
534,000000	0,001062
533,000000	0,001075
532,000000	0,001303
531,000000	0,001290
530,000000	0,001189
529,000000	0,001240
528,000000	0,001384
527,000000	0,001473
526,000000	0,001206
525,000000	0,001472
524,000000	0,001329
523,000000	0,001121
522,000000	0,001375
521,000000	0,001468
520,000000	0,001412
519,000000	0,001201
518,000000	0,001454
517,000000	0,001504
516,000000	0,001412
515,000000	0,001332
514,000000	0,001555
513,000000	0,001171
512,000000	0,001234
511,000000	0,001107
510,000000	0,001216
509,000000	0,001102
508,000000	0,001313
507,000000	0,001465
506,000000	0,001013
505,000000	0,001384
504,000000	0,001275
503,000000	0,001207
502,000000	0,001472
501,000000	0,001532
500,000000	0,001467
499,000000	0,001298
498,000000	0,001197
497,000000	0,001424
496,000000	0,001395
495,000000	0,001558
494,000000	0,001508
493,000000	0,001377
492,000000	0,001756
491,000000	0,001507
490,000000	0,001684
489,000000	0,001603
488,000000	0,001632
487,000000	0,001922
486,000000	0,001502
485,000000	0,001338
484,000000	0,001391
483,000000	0,001408
482,000000	0,001275
481,000000	0,001841
480,000000	0,001707
479,000000	0,001799
478,000000	0,001828
477,000000	0,001753
476,000000	0,001795
475,000000	0,001690
474,000000	0,001615
473,000000	0,001556
472,000000	0,001687
471,000000	0,001936
470,000000	0,001810
469,000000	0,002072
468,000000	0,001639
467,000000	0,001724
466,000000	0,001775
465,000000	0,001658
464,000000	0,001587
463,000000	0,001583
462,000000	0,001727
461,000000	0,001614
460,000000	0,001475
459,000000	0,001633
458,000000	0,001705
457,000000	0,001787
456,000000	0,001614
455,000000	0,001462
454,000000	0,001721
453,000000	0,001365
452,000000	0,001882
451,000000	0,001761
450,000000	0,001883
449,000000	0,001913
448,000000	0,002089
447,000000	0,002110
446,000000	0,001823
445,000000	0,001904
444,000000	0,001973
443,000000	0,002115
442,000000	0,001783
441,000000	0,001960
440,000000	0,001812
439,000000	0,001996
438,000000	0,001900
437,000000	0,001610
436,000000	0,002055
435,000000	0,001996
434,000000	0,001903
433,000000	0,001844
432,000000	0,002006
431,000000	0,002217
430,000000	0,002067
429,000000	0,002042
428,000000	0,002462
427,000000	0,001871
426,000000	0,001786
425,000000	0,002094
424,000000	0,002227
423,000000	0,002295
422,000000	0,001978
421,000000	0,002856
420,000000	0,003049
419,000000	0,003195
418,000000	0,003067
417,000000	0,003186
416,000000	0,003202
415,000000	0,003365
414,000000	0,003214
413,000000	0,003720
412,000000	0,003402
411,000000	0,003523
410,000000	0,003545
409,000000	0,003307
408,000000	0,003589
407,000000	0,003516
406,000000	0,003408
405,000000	0,003645
404,000000	0,003527
403,000000	0,003693
402,000000	0,003683
401,000000	0,003988
400,000000	0,003915
399,000000	0,003970
398,000000	0,004035
397,000000	0,004363
396,000000	0,004134
395,000000	0,004335
394,000000	0,004143
393,000000	0,004371
392,000000	0,004210
391,000000	0,004583
390,000000	0,004663
