PE UV       SUBTECH     SPECTRUM    ASCII       PEDS        4.00        
   -1
33.Sample.Raw.asc
20/09/09
16:09:07.00
20/09/09
16:09:07.00
Analyst

390,000000
1
Lambda 25
501s11081509
PerkinElmer UV WinLab 6.0.3.0730 / Lambda25 1.27

480
2
1
0
0
Both on
1
1
1
None
0
0
0
0
 
 
0
0
0
0
0
 
 
 
0
 
0
326
0
 
0
 
 
 
0
0
0
 
0
 
 
 
0
 
 
0
0
0
0
0
 
 
 
 
0
0


#HDR
-1
-1
#GR
nm
A
1.0
0.0
700,000000
-1,000000
311
8
0,155015
0,000041
#DATA
700,000000	0,000472
699,000000	0,000554
698,000000	0,000566
697,000000	0,000788
696,000000	0,000546
695,000000	0,000690
694,000000	0,000711
693,000000	0,000871
692,000000	0,000670
691,000000	0,000757
690,000000	0,000670
689,000000	0,000506
688,000000	0,000576
687,000000	0,000523
686,000000	0,000589
685,000000	0,000597
684,000000	0,000494
683,000000	0,000041
682,000000	0,000338
681,000000	0,000054
680,000000	0,000186
679,000000	0,000264
678,000000	0,000322
677,000000	0,000276
676,000000	0,000314
675,000000	0,000058
674,000000	0,000293
673,000000	0,000359
672,000000	0,000620
671,000000	0,000132
670,000000	0,000542
669,000000	0,000810
668,000000	0,001112
667,000000	0,000604
666,000000	0,000430
665,000000	0,000823
664,000000	0,000588
663,000000	0,000496
662,000000	0,000559
661,000000	0,000729
660,000000	0,000480
659,000000	0,000592
658,000000	0,000166
657,000000	0,000733
656,000000	0,000460
655,000000	0,000543
654,000000	0,000547
653,000000	0,000411
652,000000	0,000220
651,000000	0,000469
650,000000	0,000776
649,000000	0,000548
648,000000	0,000768
647,000000	0,000797
646,000000	0,000477
645,000000	0,000594
644,000000	0,000507
643,000000	0,000569
642,000000	0,000531
641,000000	0,000565
640,000000	0,000698
639,000000	0,000872
638,000000	0,000631
637,000000	0,000752
636,000000	0,000964
635,000000	0,000632
634,000000	0,000972
633,000000	0,001047
632,000000	0,001010
631,000000	0,001285
630,000000	0,001347
629,000000	0,001235
628,000000	0,001335
627,000000	0,001543
626,000000	0,001685
625,000000	0,001693
624,000000	0,001518
623,000000	0,001510
622,000000	0,001261
621,000000	0,001664
620,000000	0,001560
619,000000	0,001453
618,000000	0,001465
617,000000	0,001482
616,000000	0,001507
615,000000	0,001723
614,000000	0,001953
613,000000	0,001670
612,000000	0,001682
611,000000	0,001815
610,000000	0,001862
609,000000	0,001791
608,000000	0,001749
607,000000	0,002104
606,000000	0,002057
605,000000	0,002250
604,000000	0,002403
603,000000	0,002498
602,000000	0,002386
601,000000	0,002336
600,000000	0,002736
599,000000	0,002799
598,000000	0,003236
597,000000	0,003051
596,000000	0,003479
595,000000	0,003838
594,000000	0,003777
593,000000	0,003855
592,000000	0,004107
591,000000	0,004056
590,000000	0,004347
589,000000	0,004364
588,000000	0,004409
587,000000	0,004623
586,000000	0,004943
585,000000	0,005230
584,000000	0,005423
583,000000	0,005768
582,000000	0,006086
581,000000	0,006335
580,000000	0,006629
579,000000	0,006706
578,000000	0,007344
577,000000	0,007492
576,000000	0,007823
575,000000	0,008299
574,000000	0,008595
573,000000	0,009113
572,000000	0,009434
571,000000	0,010132
570,000000	0,010181
569,000000	0,010516
568,000000	0,010952
567,000000	0,011415
566,000000	0,011843
565,000000	0,012527
564,000000	0,013035
563,000000	0,013254
562,000000	0,013951
561,000000	0,014101
560,000000	0,014876
559,000000	0,016592
558,000000	0,017066
557,000000	0,017500
556,000000	0,017852
555,000000	0,018350
554,000000	0,019217
553,000000	0,019533
552,000000	0,020285
551,000000	0,020588
550,000000	0,021746
549,000000	0,022188
548,000000	0,022865
547,000000	0,023729
546,000000	0,024434
545,000000	0,025121
544,000000	0,026023
543,000000	0,026558
542,000000	0,027901
541,000000	0,028317
540,000000	0,029217
539,000000	0,029815
538,000000	0,030855
537,000000	0,032031
536,000000	0,032409
535,000000	0,033565
534,000000	0,035260
533,000000	0,036112
532,000000	0,037035
531,000000	0,038387
530,000000	0,039096
529,000000	0,040479
528,000000	0,041536
527,000000	0,042491
526,000000	0,044052
525,000000	0,045330
524,000000	0,046033
523,000000	0,047236
522,000000	0,048673
521,000000	0,049752
520,000000	0,051170
519,000000	0,051986
518,000000	0,053577
517,000000	0,055053
516,000000	0,056218
515,000000	0,056906
514,000000	0,058755
513,000000	0,059408
512,000000	0,060423
511,000000	0,061873
510,000000	0,062945
509,000000	0,063935
508,000000	0,065507
507,000000	0,066752
506,000000	0,068086
505,000000	0,069408
504,000000	0,070488
503,000000	0,071868
502,000000	0,073025
501,000000	0,074052
500,000000	0,075976
499,000000	0,077135
498,000000	0,078145
497,000000	0,079405
496,000000	0,081009
495,000000	0,082650
494,000000	0,083802
493,000000	0,085121
492,000000	0,086532
491,000000	0,087729
490,000000	0,088984
489,000000	0,090174
488,000000	0,091742
487,000000	0,093193
486,000000	0,094078
485,000000	0,095214
484,000000	0,096686
483,000000	0,098047
482,000000	0,098540
481,000000	0,100038
480,000000	0,101254
479,000000	0,102265
478,000000	0,103411
477,000000	0,104097
476,000000	0,105106
475,000000	0,105871
474,000000	0,106863
473,000000	0,107511
472,000000	0,108573
471,000000	0,109536
470,000000	0,110435
469,000000	0,111446
468,000000	0,111859
467,000000	0,112540
466,000000	0,113429
465,000000	0,113868
464,000000	0,114552
463,000000	0,114838
462,000000	0,115756
461,000000	0,115968
460,000000	0,116523
459,000000	0,116858
458,000000	0,117802
457,000000	0,118393
456,000000	0,118602
455,000000	0,118784
454,000000	0,119245
453,000000	0,119272
452,000000	0,120125
451,000000	0,119686
450,000000	0,120586
449,000000	0,120431
448,000000	0,120791
447,000000	0,121052
446,000000	0,120906
445,000000	0,121159
444,000000	0,121293
443,000000	0,120999
442,000000	0,121204
441,000000	0,121234
440,000000	0,121304
439,000000	0,121556
438,000000	0,121595
437,000000	0,121018
436,000000	0,121499
435,000000	0,121346
434,000000	0,121534
433,000000	0,121584
432,000000	0,121820
431,000000	0,121735
430,000000	0,122357
429,000000	0,122236
428,000000	0,122731
427,000000	0,122099
426,000000	0,122111
425,000000	0,122629
424,000000	0,122930
423,000000	0,122950
422,000000	0,122904
421,000000	0,122824
420,000000	0,123277
419,000000	0,123177
418,000000	0,123315
417,000000	0,123497
416,000000	0,123925
415,000000	0,124113
414,000000	0,124559
413,000000	0,124960
412,000000	0,124991
411,000000	0,125198
410,000000	0,125650
409,000000	0,126140
408,000000	0,126564
407,000000	0,127291
406,000000	0,128413
405,000000	0,129010
404,000000	0,130034
403,000000	0,131480
402,000000	0,132747
401,000000	0,134476
400,000000	0,136050
399,000000	0,138056
398,000000	0,140053
397,000000	0,142064
396,000000	0,144031
395,000000	0,145766
394,000000	0,147947
393,000000	0,150408
392,000000	0,151599
391,000000	0,153464
390,000000	0,155015
