PE UV       SUBTECH     SPECTRUM    ASCII       PEDS        4.00        
   -1
36.Sample.Raw.asc
20/09/09
16:12:09.00
20/09/09
16:12:09.00
Analyst

390,000000
1
Lambda 25
501s11081509
PerkinElmer UV WinLab 6.0.3.0730 / Lambda25 1.27

480
2
1
0
0
Both on
1
1
1
None
0
0
0
0
 
 
0
0
0
0
0
 
 
 
0
 
0
326
0
 
0
 
 
 
0
0
0
 
0
 
 
 
0
 
 
0
0
0
0
0
 
 
 
 
0
0


#HDR
-1
-1
#GR
nm
A
1.0
0.0
700,000000
-1,000000
311
8
0,004654
-0,000111
#DATA
700,000000	0,000307
699,000000	0,000344
698,000000	0,000427
697,000000	0,000550
696,000000	0,000382
695,000000	0,000357
694,000000	0,000386
693,000000	0,000316
692,000000	0,000308
691,000000	0,000543
690,000000	0,000428
689,000000	0,000218
688,000000	0,000440
687,000000	0,000214
686,000000	0,000424
685,000000	0,000601
684,000000	0,000301
683,000000	-0,000049
682,000000	0,000198
681,000000	0,000251
680,000000	-0,000111
679,000000	0,000388
678,000000	0,000157
677,000000	0,000153
676,000000	0,000268
675,000000	-0,000025
674,000000	0,000413
673,000000	0,000335
672,000000	0,000223
671,000000	0,000219
670,000000	0,000372
669,000000	0,000690
668,000000	0,001021
667,000000	0,000860
666,000000	0,000377
665,000000	0,000745
664,000000	0,000501
663,000000	0,000517
662,000000	0,000385
661,000000	0,000617
660,000000	0,000588
659,000000	0,000489
658,000000	0,000319
657,000000	0,000518
656,000000	0,000302
655,000000	0,000721
654,000000	0,000646
653,000000	0,000195
652,000000	0,000303
651,000000	0,000461
650,000000	0,000564
649,000000	0,000593
648,000000	0,000714
647,000000	0,000739
646,000000	0,000436
645,000000	0,000399
644,000000	0,000340
643,000000	0,000407
642,000000	0,000320
641,000000	0,000399
640,000000	0,000523
639,000000	0,000619
638,000000	0,000295
637,000000	0,000569
636,000000	0,000644
635,000000	0,000328
634,000000	0,000640
633,000000	0,000548
632,000000	0,000656
631,000000	0,000760
630,000000	0,000914
629,000000	0,000860
628,000000	0,000732
627,000000	0,000956
626,000000	0,000968
625,000000	0,001160
624,000000	0,001077
623,000000	0,001194
622,000000	0,000898
621,000000	0,001056
620,000000	0,000940
619,000000	0,000811
618,000000	0,000886
617,000000	0,000928
616,000000	0,000878
615,000000	0,001119
614,000000	0,001073
613,000000	0,000811
612,000000	0,000736
611,000000	0,000907
610,000000	0,001103
609,000000	0,000720
608,000000	0,000961
607,000000	0,001023
606,000000	0,000907
605,000000	0,000840
604,000000	0,001039
603,000000	0,001006
602,000000	0,000948
601,000000	0,000956
600,000000	0,001230
599,000000	0,001097
598,000000	0,001426
597,000000	0,000848
596,000000	0,001230
595,000000	0,001492
594,000000	0,001326
593,000000	0,001019
592,000000	0,001219
591,000000	0,001153
590,000000	0,001145
589,000000	0,000938
588,000000	0,000955
587,000000	0,000688
586,000000	0,001099
585,000000	0,001020
584,000000	0,001139
583,000000	0,000955
582,000000	0,000885
581,000000	0,000824
580,000000	0,000900
579,000000	0,000741
578,000000	0,000986
577,000000	0,001025
576,000000	0,001190
575,000000	0,001111
574,000000	0,001078
573,000000	0,001074
572,000000	0,000936
571,000000	0,000965
570,000000	0,000851
569,000000	0,000580
568,000000	0,000784
567,000000	0,000466
566,000000	0,001034
565,000000	0,001064
564,000000	0,001221
563,000000	0,000946
562,000000	0,000712
561,000000	0,000933
560,000000	0,000963
559,000000	0,001225
558,000000	0,001369
557,000000	0,001378
556,000000	0,001433
555,000000	0,001001
554,000000	0,001153
553,000000	0,001086
552,000000	0,000899
551,000000	0,001183
550,000000	0,001322
549,000000	0,001356
548,000000	0,001076
547,000000	0,001279
546,000000	0,001254
545,000000	0,001203
544,000000	0,001304
543,000000	0,001042
542,000000	0,001236
541,000000	0,001042
540,000000	0,001160
539,000000	0,000813
538,000000	0,001329
537,000000	0,001235
536,000000	0,001016
535,000000	0,000982
534,000000	0,001307
533,000000	0,001092
532,000000	0,001439
531,000000	0,001375
530,000000	0,001075
529,000000	0,001473
528,000000	0,001507
527,000000	0,001240
526,000000	0,001333
525,000000	0,001514
524,000000	0,001265
523,000000	0,001113
522,000000	0,001443
521,000000	0,001239
520,000000	0,001450
519,000000	0,001240
518,000000	0,001493
517,000000	0,001754
516,000000	0,001492
515,000000	0,001175
514,000000	0,001521
513,000000	0,001293
512,000000	0,001204
511,000000	0,001081
510,000000	0,001305
509,000000	0,001170
508,000000	0,001457
507,000000	0,001351
506,000000	0,001258
505,000000	0,001515
504,000000	0,001482
503,000000	0,001275
502,000000	0,001401
501,000000	0,001515
500,000000	0,001303
499,000000	0,001742
498,000000	0,001425
497,000000	0,001711
496,000000	0,001547
495,000000	0,001773
494,000000	0,001537
493,000000	0,001626
492,000000	0,001701
491,000000	0,001596
490,000000	0,001696
489,000000	0,001616
488,000000	0,001632
487,000000	0,001783
486,000000	0,001641
485,000000	0,001346
484,000000	0,001669
483,000000	0,001708
482,000000	0,001258
481,000000	0,001778
480,000000	0,001694
479,000000	0,001706
478,000000	0,001971
477,000000	0,001589
476,000000	0,001694
475,000000	0,001463
474,000000	0,001404
473,000000	0,001729
472,000000	0,001510
471,000000	0,001645
470,000000	0,001886
469,000000	0,001937
468,000000	0,001858
467,000000	0,001425
466,000000	0,001716
465,000000	0,001907
464,000000	0,001430
463,000000	0,001587
462,000000	0,001630
461,000000	0,001694
460,000000	0,001619
459,000000	0,001451
458,000000	0,001871
457,000000	0,001507
456,000000	0,001749
455,000000	0,001479
454,000000	0,001623
453,000000	0,001641
452,000000	0,001823
451,000000	0,001459
450,000000	0,002104
449,000000	0,002045
448,000000	0,001991
447,000000	0,002259
446,000000	0,001747
445,000000	0,001610
444,000000	0,001871
443,000000	0,001987
442,000000	0,002039
441,000000	0,001917
440,000000	0,001932
439,000000	0,002022
438,000000	0,002157
437,000000	0,002094
436,000000	0,002607
435,000000	0,002292
434,000000	0,001946
433,000000	0,002775
432,000000	0,002572
431,000000	0,002826
430,000000	0,002960
429,000000	0,003077
428,000000	0,002832
427,000000	0,002579
426,000000	0,002912
425,000000	0,003087
424,000000	0,002631
423,000000	0,003150
422,000000	0,003626
421,000000	0,003554
420,000000	0,003660
419,000000	0,003678
418,000000	0,003597
417,000000	0,003866
416,000000	0,003989
415,000000	0,004326
414,000000	0,004179
413,000000	0,004138
412,000000	0,004452
411,000000	0,004229
410,000000	0,004342
409,000000	0,003996
408,000000	0,004218
407,000000	0,004204
406,000000	0,004071
405,000000	0,004187
404,000000	0,004327
403,000000	0,004325
402,000000	0,004074
401,000000	0,004306
400,000000	0,004413
399,000000	0,004336
398,000000	0,004026
397,000000	0,004226
396,000000	0,004654
395,000000	0,004275
394,000000	0,004108
393,000000	0,004208
392,000000	0,003712
391,000000	0,003930
390,000000	0,004049
