PE UV       SUBTECH     SPECTRUM    ASCII       PEDS        4.00        
   -1
37.Sample.Raw.asc
20/09/09
16:14:43.00
20/09/09
16:14:43.00
Analyst

390,000000
1
Lambda 25
501s11081509
PerkinElmer UV WinLab 6.0.3.0730 / Lambda25 1.27

480
2
1
0
0
Both on
1
1
1
None
0
0
0
0
 
 
0
0
0
0
0
 
 
 
0
 
0
326
0
 
0
 
 
 
0
0
0
 
0
 
 
 
0
 
 
0
0
0
0
0
 
 
 
 
0
0


#HDR
-1
-1
#GR
nm
A
1.0
0.0
700,000000
-1,000000
311
8
1,334434
0,016727
#DATA
700,000000	0,016727
699,000000	0,016728
698,000000	0,016891
697,000000	0,017138
696,000000	0,017029
695,000000	0,017090
694,000000	0,017322
693,000000	0,017217
692,000000	0,017245
691,000000	0,017212
690,000000	0,017246
689,000000	0,017045
688,000000	0,017414
687,000000	0,017218
686,000000	0,017433
685,000000	0,017355
684,000000	0,017545
683,000000	0,017195
682,000000	0,017389
681,000000	0,017667
680,000000	0,017376
679,000000	0,017577
678,000000	0,017522
677,000000	0,017432
676,000000	0,017570
675,000000	0,017466
674,000000	0,017830
673,000000	0,017717
672,000000	0,018046
671,000000	0,018041
670,000000	0,017960
669,000000	0,018306
668,000000	0,018685
667,000000	0,018392
666,000000	0,018279
665,000000	0,018527
664,000000	0,018370
663,000000	0,018438
662,000000	0,018290
661,000000	0,018634
660,000000	0,018664
659,000000	0,018504
658,000000	0,018319
657,000000	0,018495
656,000000	0,018458
655,000000	0,018578
654,000000	0,018904
653,000000	0,018575
652,000000	0,018648
651,000000	0,018512
650,000000	0,019046
649,000000	0,018947
648,000000	0,019152
647,000000	0,019129
646,000000	0,019060
645,000000	0,019071
644,000000	0,018988
643,000000	0,019153
642,000000	0,019184
641,000000	0,019501
640,000000	0,019203
639,000000	0,019298
638,000000	0,019365
637,000000	0,019567
636,000000	0,019716
635,000000	0,019454
634,000000	0,019661
633,000000	0,019590
632,000000	0,019772
631,000000	0,020123
630,000000	0,020107
629,000000	0,019887
628,000000	0,020103
627,000000	0,020264
626,000000	0,020248
625,000000	0,020490
624,000000	0,020252
623,000000	0,020382
622,000000	0,020424
621,000000	0,020554
620,000000	0,020488
619,000000	0,020491
618,000000	0,020596
617,000000	0,020634
616,000000	0,020707
615,000000	0,021005
614,000000	0,020925
613,000000	0,020724
612,000000	0,020862
611,000000	0,020976
610,000000	0,021000
609,000000	0,021125
608,000000	0,021220
607,000000	0,021112
606,000000	0,021354
605,000000	0,021367
604,000000	0,021710
603,000000	0,021523
602,000000	0,021504
601,000000	0,021428
600,000000	0,021779
599,000000	0,021683
598,000000	0,022043
597,000000	0,021819
596,000000	0,022280
595,000000	0,022355
594,000000	0,022345
593,000000	0,022218
592,000000	0,022445
591,000000	0,022284
590,000000	0,022553
589,000000	0,022336
588,000000	0,022290
587,000000	0,022480
586,000000	0,022398
585,000000	0,022877
584,000000	0,022515
583,000000	0,022555
582,000000	0,022399
581,000000	0,022584
580,000000	0,022641
579,000000	0,022709
578,000000	0,022917
577,000000	0,023146
576,000000	0,023241
575,000000	0,023367
574,000000	0,023191
573,000000	0,023604
572,000000	0,023198
571,000000	0,023428
570,000000	0,023591
569,000000	0,023286
568,000000	0,023347
567,000000	0,023356
566,000000	0,023777
565,000000	0,023951
564,000000	0,023875
563,000000	0,023920
562,000000	0,024028
561,000000	0,024040
560,000000	0,024556
559,000000	0,024996
558,000000	0,025296
557,000000	0,025212
556,000000	0,025012
555,000000	0,025009
554,000000	0,024998
553,000000	0,024742
552,000000	0,025135
551,000000	0,025341
550,000000	0,025678
549,000000	0,025671
548,000000	0,025806
547,000000	0,026094
546,000000	0,026088
545,000000	0,026086
544,000000	0,025982
543,000000	0,026248
542,000000	0,026075
541,000000	0,026165
540,000000	0,026593
539,000000	0,026493
538,000000	0,026750
537,000000	0,026899
536,000000	0,026726
535,000000	0,026692
534,000000	0,027215
533,000000	0,027376
532,000000	0,027559
531,000000	0,027537
530,000000	0,027567
529,000000	0,027790
528,000000	0,028010
527,000000	0,028050
526,000000	0,028182
525,000000	0,028514
524,000000	0,028135
523,000000	0,028112
522,000000	0,028508
521,000000	0,028495
520,000000	0,028734
519,000000	0,028647
518,000000	0,029172
517,000000	0,029524
516,000000	0,029529
515,000000	0,029464
514,000000	0,029765
513,000000	0,029458
512,000000	0,029631
511,000000	0,029693
510,000000	0,029872
509,000000	0,030104
508,000000	0,030098
507,000000	0,030457
506,000000	0,030359
505,000000	0,030719
504,000000	0,030756
503,000000	0,030869
502,000000	0,031279
501,000000	0,031137
500,000000	0,031466
499,000000	0,031576
498,000000	0,031778
497,000000	0,032180
496,000000	0,031993
495,000000	0,032382
494,000000	0,032177
493,000000	0,032551
492,000000	0,033010
491,000000	0,033160
490,000000	0,033083
489,000000	0,033185
488,000000	0,033281
487,000000	0,033751
486,000000	0,033620
485,000000	0,033750
484,000000	0,033942
483,000000	0,034191
482,000000	0,033748
481,000000	0,034824
480,000000	0,034951
479,000000	0,035079
478,000000	0,035186
477,000000	0,035360
476,000000	0,035586
475,000000	0,035733
474,000000	0,035931
473,000000	0,036041
472,000000	0,036489
471,000000	0,036865
470,000000	0,037013
469,000000	0,037388
468,000000	0,037537
467,000000	0,037853
466,000000	0,038131
465,000000	0,038321
464,000000	0,038487
463,000000	0,038848
462,000000	0,039189
461,000000	0,039679
460,000000	0,039879
459,000000	0,039931
458,000000	0,040866
457,000000	0,041227
456,000000	0,041588
455,000000	0,042192
454,000000	0,042749
453,000000	0,043248
452,000000	0,044145
451,000000	0,044532
450,000000	0,045386
449,000000	0,046353
448,000000	0,047339
447,000000	0,048155
446,000000	0,048839
445,000000	0,050343
444,000000	0,051748
443,000000	0,053377
442,000000	0,055007
441,000000	0,057018
440,000000	0,059584
439,000000	0,062213
438,000000	0,065805
437,000000	0,069718
436,000000	0,074375
435,000000	0,080038
434,000000	0,086400
433,000000	0,094625
432,000000	0,104194
431,000000	0,115576
430,000000	0,130201
429,000000	0,146232
428,000000	0,165121
427,000000	0,186128
426,000000	0,209341
425,000000	0,233999
424,000000	0,263076
423,000000	0,295202
422,000000	0,331120
421,000000	0,367948
420,000000	0,412572
419,000000	0,461294
418,000000	0,513451
417,000000	0,563600
416,000000	0,618549
415,000000	0,678756
414,000000	0,741365
413,000000	0,804811
412,000000	0,872014
411,000000	0,938291
410,000000	1,003081
409,000000	1,065392
408,000000	1,124281
407,000000	1,173947
406,000000	1,217520
405,000000	1,254165
404,000000	1,281229
403,000000	1,298214
402,000000	1,315029
401,000000	1,327568
400,000000	1,334434
399,000000	1,334197
398,000000	1,333470
397,000000	1,333634
396,000000	1,331809
395,000000	1,326271
394,000000	1,326023
393,000000	1,321408
392,000000	1,320246
391,000000	1,316956
390,000000	1,312959
