PE UV       SUBTECH     SPECTRUM    ASCII       PEDS        4.00        
   -1
38.Sample.Raw.asc
20/09/09
16:17:09.00
20/09/09
16:17:09.00
Analyst

390,000000
1
Lambda 25
501s11081509
PerkinElmer UV WinLab 6.0.3.0730 / Lambda25 1.27

480
2
1
0
0
Both on
1
1
1
None
0
0
0
0
 
 
0
0
0
0
0
 
 
 
0
 
0
326
0
 
0
 
 
 
0
0
0
 
0
 
 
 
0
 
 
0
0
0
0
0
 
 
 
 
0
0


#HDR
-1
-1
#GR
nm
A
1.0
0.0
700,000000
-1,000000
311
8
0,007992
0,001078
#DATA
700,000000	0,001651
699,000000	0,001610
698,000000	0,001668
697,000000	0,001886
696,000000	0,001751
695,000000	0,001636
694,000000	0,001727
693,000000	0,001864
692,000000	0,001741
691,000000	0,001638
690,000000	0,001577
689,000000	0,001425
688,000000	0,001705
687,000000	0,001512
686,000000	0,001669
685,000000	0,001620
684,000000	0,001493
683,000000	0,001184
682,000000	0,001366
681,000000	0,001511
680,000000	0,001078
679,000000	0,001511
678,000000	0,001459
677,000000	0,001252
676,000000	0,001401
675,000000	0,001270
674,000000	0,001567
673,000000	0,001493
672,000000	0,001527
671,000000	0,001469
670,000000	0,001440
669,000000	0,001829
668,000000	0,001841
667,000000	0,001718
666,000000	0,001641
665,000000	0,001972
664,000000	0,001645
663,000000	0,001757
662,000000	0,001936
661,000000	0,001708
660,000000	0,001812
659,000000	0,001597
658,000000	0,001677
657,000000	0,001776
656,000000	0,001681
655,000000	0,001818
654,000000	0,001851
653,000000	0,001445
652,000000	0,001557
651,000000	0,001554
650,000000	0,001956
649,000000	0,001853
648,000000	0,001624
647,000000	0,001778
646,000000	0,001658
645,000000	0,001367
644,000000	0,001384
643,000000	0,001742
642,000000	0,001684
641,000000	0,001742
640,000000	0,001850
639,000000	0,001829
638,000000	0,001584
637,000000	0,001942
636,000000	0,001867
635,000000	0,001435
634,000000	0,001939
633,000000	0,001976
632,000000	0,001972
631,000000	0,002189
630,000000	0,002102
629,000000	0,002052
628,000000	0,002107
627,000000	0,002165
626,000000	0,002185
625,000000	0,002210
624,000000	0,002140
623,000000	0,002282
622,000000	0,002024
621,000000	0,002256
620,000000	0,002341
619,000000	0,001849
618,000000	0,001878
617,000000	0,002007
616,000000	0,001958
615,000000	0,002316
614,000000	0,002137
613,000000	0,001932
612,000000	0,002012
611,000000	0,002062
610,000000	0,002083
609,000000	0,001908
608,000000	0,002125
607,000000	0,002028
606,000000	0,001949
605,000000	0,001920
604,000000	0,002236
603,000000	0,002177
602,000000	0,001881
601,000000	0,001877
600,000000	0,002189
599,000000	0,002072
598,000000	0,002422
597,000000	0,002023
596,000000	0,002230
595,000000	0,002546
594,000000	0,002285
593,000000	0,002245
592,000000	0,002211
591,000000	0,002188
590,000000	0,002030
589,000000	0,002040
588,000000	0,001954
587,000000	0,002035
586,000000	0,002074
585,000000	0,002164
584,000000	0,001999
583,000000	0,001968
582,000000	0,002021
581,000000	0,001746
580,000000	0,002017
579,000000	0,001973
578,000000	0,002034
577,000000	0,001917
576,000000	0,002117
575,000000	0,002043
574,000000	0,001883
573,000000	0,001981
572,000000	0,002043
571,000000	0,002103
570,000000	0,001819
569,000000	0,001807
568,000000	0,001791
567,000000	0,001812
566,000000	0,002232
565,000000	0,002122
564,000000	0,001872
563,000000	0,001889
562,000000	0,001838
561,000000	0,001775
560,000000	0,002035
559,000000	0,002444
558,000000	0,002577
557,000000	0,002381
556,000000	0,002058
555,000000	0,002127
554,000000	0,002215
553,000000	0,001991
552,000000	0,001965
551,000000	0,002194
550,000000	0,002448
549,000000	0,002282
548,000000	0,002236
547,000000	0,002528
546,000000	0,002120
545,000000	0,002137
544,000000	0,002120
543,000000	0,002319
542,000000	0,002161
541,000000	0,001754
540,000000	0,002374
539,000000	0,002103
538,000000	0,002267
537,000000	0,002355
536,000000	0,002029
535,000000	0,002081
534,000000	0,002606
533,000000	0,002317
532,000000	0,002521
531,000000	0,002538
530,000000	0,002429
529,000000	0,002300
528,000000	0,002475
527,000000	0,002373
526,000000	0,002355
525,000000	0,002643
524,000000	0,002352
523,000000	0,002118
522,000000	0,002423
521,000000	0,002398
520,000000	0,002256
519,000000	0,002232
518,000000	0,002583
517,000000	0,002819
516,000000	0,002400
515,000000	0,002200
514,000000	0,002432
513,000000	0,002149
512,000000	0,002081
511,000000	0,001966
510,000000	0,001999
509,000000	0,001991
508,000000	0,002321
507,000000	0,002354
506,000000	0,002012
505,000000	0,002561
504,000000	0,002239
503,000000	0,002019
502,000000	0,002471
501,000000	0,002301
500,000000	0,002512
499,000000	0,002398
498,000000	0,002334
497,000000	0,002400
496,000000	0,001999
495,000000	0,002521
494,000000	0,002488
493,000000	0,002361
492,000000	0,002659
491,000000	0,002618
490,000000	0,002406
489,000000	0,002582
488,000000	0,002535
487,000000	0,002665
486,000000	0,002282
485,000000	0,002266
484,000000	0,002391
483,000000	0,002370
482,000000	0,001962
481,000000	0,002697
480,000000	0,002398
479,000000	0,002646
478,000000	0,002671
477,000000	0,002601
476,000000	0,002562
475,000000	0,002559
474,000000	0,002302
473,000000	0,002475
472,000000	0,002640
471,000000	0,002717
470,000000	0,002494
469,000000	0,002976
468,000000	0,003004
467,000000	0,002604
466,000000	0,002896
465,000000	0,002694
464,000000	0,002654
463,000000	0,002527
462,000000	0,002719
461,000000	0,002597
460,000000	0,003218
459,000000	0,002669
458,000000	0,002932
457,000000	0,003121
456,000000	0,002884
455,000000	0,002924
454,000000	0,002920
453,000000	0,002781
452,000000	0,003380
451,000000	0,002931
450,000000	0,002891
449,000000	0,003438
448,000000	0,003573
447,000000	0,003641
446,000000	0,003231
445,000000	0,003081
444,000000	0,003206
443,000000	0,003154
442,000000	0,003514
441,000000	0,003089
440,000000	0,003520
439,000000	0,003538
438,000000	0,003439
437,000000	0,003266
436,000000	0,003870
435,000000	0,003374
434,000000	0,003474
433,000000	0,003587
432,000000	0,003745
431,000000	0,003837
430,000000	0,003760
429,000000	0,003917
428,000000	0,004088
427,000000	0,003776
426,000000	0,003489
425,000000	0,003983
424,000000	0,003487
423,000000	0,004080
422,000000	0,004134
421,000000	0,004754
420,000000	0,004933
419,000000	0,004856
418,000000	0,004654
417,000000	0,004712
416,000000	0,005129
415,000000	0,005280
414,000000	0,005189
413,000000	0,005519
412,000000	0,005406
411,000000	0,005221
410,000000	0,005770
409,000000	0,005393
408,000000	0,005637
407,000000	0,005719
406,000000	0,005662
405,000000	0,006095
404,000000	0,006156
403,000000	0,006184
402,000000	0,006545
401,000000	0,006285
400,000000	0,006583
399,000000	0,006730
398,000000	0,006876
397,000000	0,007275
396,000000	0,006867
395,000000	0,007440
394,000000	0,007472
393,000000	0,007681
392,000000	0,007249
391,000000	0,007654
390,000000	0,007992
