PE UV       SUBTECH     SPECTRUM    ASCII       PEDS        4.00        
   -1
41.Sample.Raw.asc
20/09/09
16:19:44.00
20/09/09
16:19:44.00
Analyst

390,000000
1
Lambda 25
501s11081509
PerkinElmer UV WinLab 6.0.3.0730 / Lambda25 1.27

480
2
1
0
0
Both on
1
1
1
None
0
0
0
0
 
 
0
0
0
0
0
 
 
 
0
 
0
326
0
 
0
 
 
 
0
0
0
 
0
 
 
 
0
 
 
0
0
0
0
0
 
 
 
 
0
0


#HDR
-1
-1
#GR
nm
A
1.0
0.0
700,000000
-1,000000
311
8
0,025851
0,000686
#DATA
700,000000	0,000968
699,000000	0,001166
698,000000	0,001108
697,000000	0,001384
696,000000	0,001076
695,000000	0,001072
694,000000	0,001163
693,000000	0,001192
692,000000	0,001114
691,000000	0,001201
690,000000	0,001243
689,000000	0,001157
688,000000	0,001140
687,000000	0,001042
686,000000	0,001079
685,000000	0,001112
684,000000	0,001179
683,000000	0,000800
682,000000	0,000986
681,000000	0,001102
680,000000	0,000888
679,000000	0,001081
678,000000	0,000735
677,000000	0,000789
676,000000	0,000946
675,000000	0,000686
674,000000	0,001046
673,000000	0,001212
672,000000	0,001108
671,000000	0,001138
670,000000	0,001212
669,000000	0,001394
668,000000	0,001506
667,000000	0,001353
666,000000	0,001006
665,000000	0,001433
664,000000	0,000973
663,000000	0,001466
662,000000	0,001201
661,000000	0,001363
660,000000	0,001285
659,000000	0,001156
658,000000	0,000962
657,000000	0,001132
656,000000	0,000950
655,000000	0,001298
654,000000	0,001369
653,000000	0,000871
652,000000	0,001067
651,000000	0,001030
650,000000	0,001386
649,000000	0,001391
648,000000	0,001320
647,000000	0,001292
646,000000	0,000993
645,000000	0,001080
644,000000	0,001089
643,000000	0,001114
642,000000	0,001151
641,000000	0,001217
640,000000	0,001118
639,000000	0,001288
638,000000	0,001114
637,000000	0,001267
636,000000	0,001334
635,000000	0,000948
634,000000	0,001235
633,000000	0,001185
632,000000	0,001497
631,000000	0,001484
630,000000	0,001643
629,000000	0,001677
628,000000	0,001602
627,000000	0,001643
626,000000	0,001651
625,000000	0,001747
624,000000	0,001739
623,000000	0,001519
622,000000	0,001511
621,000000	0,001835
620,000000	0,001977
619,000000	0,001765
618,000000	0,001486
617,000000	0,001557
616,000000	0,001478
615,000000	0,001869
614,000000	0,001890
613,000000	0,001824
612,000000	0,001636
611,000000	0,001636
610,000000	0,001565
609,000000	0,001799
608,000000	0,001595
607,000000	0,001753
606,000000	0,001815
605,000000	0,001753
604,000000	0,001873
603,000000	0,001901
602,000000	0,001981
601,000000	0,001664
600,000000	0,001930
599,000000	0,001705
598,000000	0,002155
597,000000	0,001631
596,000000	0,002351
595,000000	0,002388
594,000000	0,002085
593,000000	0,001936
592,000000	0,002140
591,000000	0,002067
590,000000	0,001943
589,000000	0,001948
588,000000	0,001887
587,000000	0,002010
586,000000	0,002108
585,000000	0,002063
584,000000	0,001734
583,000000	0,001959
582,000000	0,001890
581,000000	0,001653
580,000000	0,001777
579,000000	0,001808
578,000000	0,002123
577,000000	0,002027
576,000000	0,002083
575,000000	0,002085
574,000000	0,002108
573,000000	0,002070
572,000000	0,001933
571,000000	0,002098
570,000000	0,002189
569,000000	0,001858
568,000000	0,001999
567,000000	0,002102
566,000000	0,002313
565,000000	0,002134
564,000000	0,002110
563,000000	0,001906
562,000000	0,002157
561,000000	0,002192
560,000000	0,002307
559,000000	0,002657
558,000000	0,002704
557,000000	0,002470
556,000000	0,002534
555,000000	0,002361
554,000000	0,002598
553,000000	0,002148
552,000000	0,002391
551,000000	0,002283
550,000000	0,002895
549,000000	0,002801
548,000000	0,002636
547,000000	0,002775
546,000000	0,002817
545,000000	0,002685
544,000000	0,002681
543,000000	0,002617
542,000000	0,002927
541,000000	0,002783
540,000000	0,002969
539,000000	0,002656
538,000000	0,003079
537,000000	0,002950
536,000000	0,002913
535,000000	0,002774
534,000000	0,003355
533,000000	0,003130
532,000000	0,003112
531,000000	0,003299
530,000000	0,003139
529,000000	0,003232
528,000000	0,003623
527,000000	0,003062
526,000000	0,003223
525,000000	0,003634
524,000000	0,003347
523,000000	0,003036
522,000000	0,003486
521,000000	0,003491
520,000000	0,003544
519,000000	0,003478
518,000000	0,003611
517,000000	0,004103
516,000000	0,003722
515,000000	0,003696
514,000000	0,004162
513,000000	0,003534
512,000000	0,003559
511,000000	0,003851
510,000000	0,003778
509,000000	0,003626
508,000000	0,003675
507,000000	0,003861
506,000000	0,003965
505,000000	0,003831
504,000000	0,004239
503,000000	0,004103
502,000000	0,004309
501,000000	0,004139
500,000000	0,004281
499,000000	0,004298
498,000000	0,004306
497,000000	0,004379
496,000000	0,004299
495,000000	0,004682
494,000000	0,004547
493,000000	0,004582
492,000000	0,004770
491,000000	0,004933
490,000000	0,004965
489,000000	0,004976
488,000000	0,005076
487,000000	0,005057
486,000000	0,004797
485,000000	0,004603
484,000000	0,004990
483,000000	0,005041
482,000000	0,004667
481,000000	0,005310
480,000000	0,005119
479,000000	0,005415
478,000000	0,005537
477,000000	0,005264
476,000000	0,005187
475,000000	0,005244
474,000000	0,005333
473,000000	0,005369
472,000000	0,005479
471,000000	0,005710
470,000000	0,005840
469,000000	0,006216
468,000000	0,005679
467,000000	0,005467
466,000000	0,006075
465,000000	0,005845
464,000000	0,005725
463,000000	0,006111
462,000000	0,006176
461,000000	0,006432
460,000000	0,006123
459,000000	0,005971
458,000000	0,006329
457,000000	0,006607
456,000000	0,006384
455,000000	0,006601
454,000000	0,006778
453,000000	0,006695
452,000000	0,007036
451,000000	0,006411
450,000000	0,007192
449,000000	0,007601
448,000000	0,007601
447,000000	0,008046
446,000000	0,007409
445,000000	0,007771
444,000000	0,007959
443,000000	0,008040
442,000000	0,008336
441,000000	0,008583
440,000000	0,008381
439,000000	0,008843
438,000000	0,009022
437,000000	0,008695
436,000000	0,009387
435,000000	0,009355
434,000000	0,009826
433,000000	0,009729
432,000000	0,010122
431,000000	0,010699
430,000000	0,010451
429,000000	0,010470
428,000000	0,010786
427,000000	0,011265
426,000000	0,011051
425,000000	0,011174
424,000000	0,011445
423,000000	0,011844
422,000000	0,011780
421,000000	0,012753
420,000000	0,013055
419,000000	0,013370
418,000000	0,013425
417,000000	0,013788
416,000000	0,014255
415,000000	0,014245
414,000000	0,014836
413,000000	0,015089
412,000000	0,015309
411,000000	0,015343
410,000000	0,016130
409,000000	0,015775
408,000000	0,016288
407,000000	0,016743
406,000000	0,017257
405,000000	0,017432
404,000000	0,017767
403,000000	0,018014
402,000000	0,018710
401,000000	0,018988
400,000000	0,019811
399,000000	0,019965
398,000000	0,020616
397,000000	0,021270
396,000000	0,022061
395,000000	0,022432
394,000000	0,022889
393,000000	0,023822
392,000000	0,024112
391,000000	0,025017
390,000000	0,025851
