PE UV       SUBTECH     SPECTRUM    ASCII       PEDS        4.00        
   -1
44.Sample.Raw.asc
20/09/09
16:22:06.00
20/09/09
16:22:06.00
Analyst

390,000000
1
Lambda 25
501s11081509
PerkinElmer UV WinLab 6.0.3.0730 / Lambda25 1.27

480
2
1
0
0
Both on
1
1
1
None
0
0
0
0
 
 
0
0
0
0
0
 
 
 
0
 
0
326
0
 
0
 
 
 
0
0
0
 
0
 
 
 
0
 
 
0
0
0
0
0
 
 
 
 
0
0


#HDR
-1
-1
#GR
nm
A
1.0
0.0
700,000000
-1,000000
311
8
0,007430
0,000460
#DATA
700,000000	0,000669
699,000000	0,000718
698,000000	0,000665
697,000000	0,001174
696,000000	0,000834
695,000000	0,000895
694,000000	0,000731
693,000000	0,000986
692,000000	0,000793
691,000000	0,000859
690,000000	0,000868
689,000000	0,000848
688,000000	0,000971
687,000000	0,000943
686,000000	0,000758
685,000000	0,000984
684,000000	0,000878
683,000000	0,000557
682,000000	0,000845
681,000000	0,000697
680,000000	0,000735
679,000000	0,000978
678,000000	0,000710
677,000000	0,000681
676,000000	0,000685
675,000000	0,000607
674,000000	0,000682
673,000000	0,000719
672,000000	0,000872
671,000000	0,000856
670,000000	0,000856
669,000000	0,001162
668,000000	0,001352
667,000000	0,001262
666,000000	0,000803
665,000000	0,001155
664,000000	0,000865
663,000000	0,001159
662,000000	0,000915
661,000000	0,000953
660,000000	0,001140
659,000000	0,001094
658,000000	0,000759
657,000000	0,000841
656,000000	0,000746
655,000000	0,000891
654,000000	0,001153
653,000000	0,000460
652,000000	0,000676
651,000000	0,000863
650,000000	0,001220
649,000000	0,001117
648,000000	0,000763
647,000000	0,000705
646,000000	0,000764
645,000000	0,000710
644,000000	0,000710
643,000000	0,000739
642,000000	0,000864
641,000000	0,000673
640,000000	0,000710
639,000000	0,001018
638,000000	0,000735
637,000000	0,000839
636,000000	0,000856
635,000000	0,000848
634,000000	0,000985
633,000000	0,000993
632,000000	0,000835
631,000000	0,001189
630,000000	0,001443
629,000000	0,001210
628,000000	0,001040
627,000000	0,001468
626,000000	0,001252
625,000000	0,001310
624,000000	0,001318
623,000000	0,001156
622,000000	0,000923
621,000000	0,001347
620,000000	0,001327
619,000000	0,001090
618,000000	0,001165
617,000000	0,001211
616,000000	0,001090
615,000000	0,001423
614,000000	0,001257
613,000000	0,001269
612,000000	0,001482
611,000000	0,001244
610,000000	0,001073
609,000000	0,001007
608,000000	0,001049
607,000000	0,001215
606,000000	0,001136
605,000000	0,000969
604,000000	0,001360
603,000000	0,001418
602,000000	0,001193
601,000000	0,001264
600,000000	0,001543
599,000000	0,001326
598,000000	0,001696
597,000000	0,001164
596,000000	0,001676
595,000000	0,001792
594,000000	0,001476
593,000000	0,001423
592,000000	0,001573
591,000000	0,001378
590,000000	0,001220
589,000000	0,001180
588,000000	0,001131
587,000000	0,001169
586,000000	0,001308
585,000000	0,001476
584,000000	0,001395
583,000000	0,001224
582,000000	0,001192
581,000000	0,000967
580,000000	0,001317
579,000000	0,001133
578,000000	0,001117
577,000000	0,001008
576,000000	0,001199
575,000000	0,001213
574,000000	0,001273
573,000000	0,001227
572,000000	0,001092
571,000000	0,001466
570,000000	0,001310
569,000000	0,000839
568,000000	0,000924
567,000000	0,001077
566,000000	0,001340
565,000000	0,001178
564,000000	0,000907
563,000000	0,001188
562,000000	0,001153
561,000000	0,000976
560,000000	0,001171
559,000000	0,001624
558,000000	0,001628
557,000000	0,001594
556,000000	0,001510
555,000000	0,001170
554,000000	0,001357
553,000000	0,001187
552,000000	0,001311
551,000000	0,001336
550,000000	0,001679
549,000000	0,001679
548,000000	0,001433
547,000000	0,001529
546,000000	0,001551
545,000000	0,001398
544,000000	0,001389
543,000000	0,001377
542,000000	0,001406
541,000000	0,001262
540,000000	0,001571
539,000000	0,001199
538,000000	0,001422
537,000000	0,001532
536,000000	0,001405
535,000000	0,001295
534,000000	0,001608
533,000000	0,001350
532,000000	0,001761
531,000000	0,001740
530,000000	0,001469
529,000000	0,001609
528,000000	0,001371
527,000000	0,001694
526,000000	0,001638
525,000000	0,001862
524,000000	0,001571
523,000000	0,001528
522,000000	0,001705
521,000000	0,001498
520,000000	0,001789
519,000000	0,001485
518,000000	0,001904
517,000000	0,002076
516,000000	0,001848
515,000000	0,001603
514,000000	0,001758
513,000000	0,001530
512,000000	0,001433
511,000000	0,001238
510,000000	0,001369
509,000000	0,001123
508,000000	0,001597
507,000000	0,001499
506,000000	0,001351
505,000000	0,001655
504,000000	0,001482
503,000000	0,001554
502,000000	0,001832
501,000000	0,001798
500,000000	0,001695
499,000000	0,001594
498,000000	0,001611
497,000000	0,001698
496,000000	0,001686
495,000000	0,001980
494,000000	0,001706
493,000000	0,001626
492,000000	0,002224
491,000000	0,001659
490,000000	0,002000
489,000000	0,001831
488,000000	0,001775
487,000000	0,001998
486,000000	0,001603
485,000000	0,001519
484,000000	0,001876
483,000000	0,001585
482,000000	0,001308
481,000000	0,001816
480,000000	0,001972
479,000000	0,001883
478,000000	0,002005
477,000000	0,001753
476,000000	0,001968
475,000000	0,001674
474,000000	0,002057
473,000000	0,001809
472,000000	0,001847
471,000000	0,002104
470,000000	0,002147
469,000000	0,002135
468,000000	0,002145
467,000000	0,001661
466,000000	0,002024
465,000000	0,002051
464,000000	0,001976
463,000000	0,001850
462,000000	0,002223
461,000000	0,002135
460,000000	0,002204
459,000000	0,001892
458,000000	0,002456
457,000000	0,002436
456,000000	0,001979
455,000000	0,001984
454,000000	0,002163
453,000000	0,001955
452,000000	0,002473
451,000000	0,001978
450,000000	0,002525
449,000000	0,002509
448,000000	0,002349
447,000000	0,002464
446,000000	0,002275
445,000000	0,002211
444,000000	0,002719
443,000000	0,002440
442,000000	0,002637
441,000000	0,002370
440,000000	0,002663
439,000000	0,002664
438,000000	0,002272
437,000000	0,002403
436,000000	0,002573
435,000000	0,002622
434,000000	0,002662
433,000000	0,002693
432,000000	0,002915
431,000000	0,003050
430,000000	0,002964
429,000000	0,002966
428,000000	0,003176
427,000000	0,002889
426,000000	0,002714
425,000000	0,002919
424,000000	0,002966
423,000000	0,003348
422,000000	0,003384
421,000000	0,004149
420,000000	0,003970
419,000000	0,004204
418,000000	0,004071
417,000000	0,004263
416,000000	0,004317
415,000000	0,004563
414,000000	0,004662
413,000000	0,005130
412,000000	0,004789
411,000000	0,004764
410,000000	0,004954
409,000000	0,004742
408,000000	0,005011
407,000000	0,005131
406,000000	0,005269
405,000000	0,005119
404,000000	0,005685
403,000000	0,005627
402,000000	0,005910
401,000000	0,005758
400,000000	0,005909
399,000000	0,006133
398,000000	0,006284
397,000000	0,006570
396,000000	0,006724
395,000000	0,006610
394,000000	0,006754
393,000000	0,007058
392,000000	0,007015
391,000000	0,007139
390,000000	0,007430
