PE UV       SUBTECH     SPECTRUM    ASCII       PEDS        4.00        
   -1
45.Sample.Raw.asc
20/09/09
16:24:37.00
20/09/09
16:24:37.00
Analyst

390,000000
1
Lambda 25
501s11081509
PerkinElmer UV WinLab 6.0.3.0730 / Lambda25 1.27

480
2
1
0
0
Both on
1
1
1
None
0
0
0
0
 
 
0
0
0
0
0
 
 
 
0
 
0
326
0
 
0
 
 
 
0
0
0
 
0
 
 
 
0
 
 
0
0
0
0
0
 
 
 
 
0
0


#HDR
-1
-1
#GR
nm
A
1.0
0.0
700,000000
-1,000000
311
8
0,009397
-0,000272
#DATA
700,000000	0,000312
699,000000	0,000275
698,000000	0,000279
697,000000	0,000607
696,000000	0,000447
695,000000	0,000386
694,000000	0,000411
693,000000	0,000509
692,000000	0,000370
691,000000	0,000325
690,000000	0,000230
689,000000	0,000218
688,000000	0,000226
687,000000	0,000255
686,000000	0,000276
685,000000	0,000346
684,000000	0,000297
683,000000	-0,000008
682,000000	-0,000165
681,000000	0,000054
680,000000	-0,000214
679,000000	0,000223
678,000000	0,000091
677,000000	-0,000049
676,000000	0,000194
675,000000	-0,000272
674,000000	0,000215
673,000000	0,000178
672,000000	0,000227
671,000000	0,000161
670,000000	0,000360
669,000000	0,000504
668,000000	0,000769
667,000000	0,000744
666,000000	0,000327
665,000000	0,000596
664,000000	0,000269
663,000000	0,000525
662,000000	0,000294
661,000000	0,000563
660,000000	0,000456
659,000000	0,000456
658,000000	0,000315
657,000000	0,000323
656,000000	0,000414
655,000000	0,000315
654,000000	0,000514
653,000000	0,000008
652,000000	0,000075
651,000000	-0,000054
650,000000	0,000564
649,000000	0,000448
648,000000	0,000108
647,000000	0,000178
646,000000	0,000062
645,000000	0,000187
644,000000	-0,000008
643,000000	0,000042
642,000000	0,000137
641,000000	0,000141
640,000000	0,000079
639,000000	0,000257
638,000000	0,000266
637,000000	0,000220
636,000000	0,000340
635,000000	0,000237
634,000000	0,000336
633,000000	0,000179
632,000000	0,000498
631,000000	0,000461
630,000000	0,000582
629,000000	0,000682
628,000000	0,000524
627,000000	0,000640
626,000000	0,000781
625,000000	0,000997
624,000000	0,000611
623,000000	0,000511
622,000000	0,000324
621,000000	0,000548
620,000000	0,000511
619,000000	0,000470
618,000000	0,000357
617,000000	0,000428
616,000000	0,000520
615,000000	0,000640
614,000000	0,000495
613,000000	0,000374
612,000000	0,000378
611,000000	0,000416
610,000000	0,000283
609,000000	0,000520
608,000000	0,000620
607,000000	0,000536
606,000000	0,000524
605,000000	0,000520
604,000000	0,000486
603,000000	0,000681
602,000000	0,000673
601,000000	0,000174
600,000000	0,000690
599,000000	0,000644
598,000000	0,000926
597,000000	0,000470
596,000000	0,001006
595,000000	0,001034
594,000000	0,000935
593,000000	0,000794
592,000000	0,001027
591,000000	0,000849
590,000000	0,000703
589,000000	0,000471
588,000000	0,000338
587,000000	0,000534
586,000000	0,000806
585,000000	0,000694
584,000000	0,000657
583,000000	0,000503
582,000000	0,000499
581,000000	0,000273
580,000000	0,000559
579,000000	0,000467
578,000000	0,000674
577,000000	0,000611
576,000000	0,000599
575,000000	0,000655
574,000000	0,000727
573,000000	0,000710
572,000000	0,000427
571,000000	0,000677
570,000000	0,000593
569,000000	0,000538
568,000000	0,000610
567,000000	0,000292
566,000000	0,000775
565,000000	0,000606
564,000000	0,000615
563,000000	0,000640
562,000000	0,000754
561,000000	0,000543
560,000000	0,000615
559,000000	0,001288
558,000000	0,001195
557,000000	0,001123
556,000000	0,001064
555,000000	0,000805
554,000000	0,000754
553,000000	0,000780
552,000000	0,000882
551,000000	0,000928
550,000000	0,001267
549,000000	0,000995
548,000000	0,001080
547,000000	0,001016
546,000000	0,001097
545,000000	0,000923
544,000000	0,001109
543,000000	0,001054
542,000000	0,001105
541,000000	0,000855
540,000000	0,000889
539,000000	0,000762
538,000000	0,001138
537,000000	0,001053
536,000000	0,000999
535,000000	0,001117
534,000000	0,001536
533,000000	0,001329
532,000000	0,001325
531,000000	0,001595
530,000000	0,001071
529,000000	0,001592
528,000000	0,001541
527,000000	0,001744
526,000000	0,001647
525,000000	0,001832
524,000000	0,001384
523,000000	0,001443
522,000000	0,001769
521,000000	0,001808
520,000000	0,001815
519,000000	0,001740
518,000000	0,002014
517,000000	0,002292
516,000000	0,001848
515,000000	0,002060
514,000000	0,002135
513,000000	0,001797
512,000000	0,001975
511,000000	0,001932
510,000000	0,001847
509,000000	0,001843
508,000000	0,001889
507,000000	0,002130
506,000000	0,001936
505,000000	0,002354
504,000000	0,002320
503,000000	0,002320
502,000000	0,002264
501,000000	0,002293
500,000000	0,002618
499,000000	0,002592
498,000000	0,002266
497,000000	0,002484
496,000000	0,002417
495,000000	0,002830
494,000000	0,002399
493,000000	0,002703
492,000000	0,002816
491,000000	0,002652
490,000000	0,002710
489,000000	0,002544
488,000000	0,002594
487,000000	0,002905
486,000000	0,002493
485,000000	0,002397
484,000000	0,003016
483,000000	0,002745
482,000000	0,002262
481,000000	0,002866
480,000000	0,002959
479,000000	0,002887
478,000000	0,003055
477,000000	0,002824
476,000000	0,002930
475,000000	0,003003
474,000000	0,002901
473,000000	0,002809
472,000000	0,003058
471,000000	0,002945
470,000000	0,003263
469,000000	0,003090
468,000000	0,003271
467,000000	0,002956
466,000000	0,003277
465,000000	0,002957
464,000000	0,002734
463,000000	0,002879
462,000000	0,002871
461,000000	0,003166
460,000000	0,003002
459,000000	0,002839
458,000000	0,003170
457,000000	0,003189
456,000000	0,002816
455,000000	0,002932
454,000000	0,002882
453,000000	0,002734
452,000000	0,003337
451,000000	0,002795
450,000000	0,003048
449,000000	0,003566
448,000000	0,003308
447,000000	0,003449
446,000000	0,003133
445,000000	0,003308
444,000000	0,003377
443,000000	0,003222
442,000000	0,003197
441,000000	0,003406
440,000000	0,003353
439,000000	0,003491
438,000000	0,003645
437,000000	0,003102
436,000000	0,003805
435,000000	0,003778
434,000000	0,003264
433,000000	0,003794
432,000000	0,003624
431,000000	0,003846
430,000000	0,003833
429,000000	0,004038
428,000000	0,003774
427,000000	0,003741
426,000000	0,003946
425,000000	0,003819
424,000000	0,003892
423,000000	0,004810
422,000000	0,004212
421,000000	0,004944
420,000000	0,005149
419,000000	0,004856
418,000000	0,004865
417,000000	0,005118
416,000000	0,005375
415,000000	0,005293
414,000000	0,005565
413,000000	0,005839
412,000000	0,005765
411,000000	0,005792
410,000000	0,006085
409,000000	0,005969
408,000000	0,006195
407,000000	0,006242
406,000000	0,006267
405,000000	0,006532
404,000000	0,006801
403,000000	0,006872
402,000000	0,006978
401,000000	0,007228
400,000000	0,007228
399,000000	0,007457
398,000000	0,007925
397,000000	0,008154
396,000000	0,008230
395,000000	0,008359
394,000000	0,008347
393,000000	0,008638
392,000000	0,008631
391,000000	0,008907
390,000000	0,009397
