PE UV       SUBTECH     SPECTRUM    ASCII       PEDS        4.00        
   -1
46.Sample.Raw.asc
20/09/09
16:27:29.00
20/09/09
16:27:29.00
Analyst

390,000000
1
Lambda 25
501s11081509
PerkinElmer UV WinLab 6.0.3.0730 / Lambda25 1.27

480
2
1
0
0
Both on
1
1
1
None
0
0
0
0
 
 
0
0
0
0
0
 
 
 
0
 
0
326
0
 
0
 
 
 
0
0
0
 
0
 
 
 
0
 
 
0
0
0
0
0
 
 
 
 
0
0


#HDR
-1
-1
#GR
nm
A
1.0
0.0
700,000000
-1,000000
311
8
0,046846
-0,000338
#DATA
700,000000	-0,000148
699,000000	0,000004
698,000000	-0,000029
697,000000	0,000160
696,000000	-0,000025
695,000000	0,000021
694,000000	0,000193
693,000000	0,000156
692,000000	0,000197
691,000000	0,000247
690,000000	0,000062
689,000000	0,000053
688,000000	0,000140
687,000000	0,000041
686,000000	0,000082
685,000000	0,000152
684,000000	0,000004
683,000000	-0,000292
682,000000	-0,000255
681,000000	-0,000140
680,000000	-0,000305
679,000000	0,000074
678,000000	-0,000338
677,000000	-0,000021
676,000000	-0,000066
675,000000	-0,000211
674,000000	0,000165
673,000000	-0,000058
672,000000	0,000008
671,000000	-0,000149
670,000000	0,000260
669,000000	0,000488
668,000000	0,000723
667,000000	0,000339
666,000000	0,000165
665,000000	0,000616
664,000000	0,000199
663,000000	0,000501
662,000000	0,000310
661,000000	0,000447
660,000000	0,000265
659,000000	0,000174
658,000000	0,000070
657,000000	0,000124
656,000000	0,000099
655,000000	0,000145
654,000000	0,000182
653,000000	-0,000099
652,000000	0,000000
651,000000	0,000116
650,000000	0,000402
649,000000	0,000211
648,000000	0,000187
647,000000	0,000311
646,000000	0,000000
645,000000	0,000129
644,000000	0,000137
643,000000	-0,000004
642,000000	0,000062
641,000000	0,000141
640,000000	0,000232
639,000000	0,000324
638,000000	0,000091
637,000000	0,000286
636,000000	0,000428
635,000000	0,000170
634,000000	0,000220
633,000000	0,000311
632,000000	0,000432
631,000000	0,000652
630,000000	0,000694
629,000000	0,000744
628,000000	0,000507
627,000000	0,000815
626,000000	0,000844
625,000000	0,000744
624,000000	0,000727
623,000000	0,000632
622,000000	0,000445
621,000000	0,000769
620,000000	0,000619
619,000000	0,000316
618,000000	0,000636
617,000000	0,000719
616,000000	0,000653
615,000000	0,000877
614,000000	0,000890
613,000000	0,000636
612,000000	0,000857
611,000000	0,000915
610,000000	0,000769
609,000000	0,000795
608,000000	0,000636
607,000000	0,000869
606,000000	0,000861
605,000000	0,000803
604,000000	0,000981
603,000000	0,001039
602,000000	0,000935
601,000000	0,000773
600,000000	0,000960
599,000000	0,001056
598,000000	0,001138
597,000000	0,000927
596,000000	0,001089
595,000000	0,001280
594,000000	0,001309
593,000000	0,001340
592,000000	0,001335
591,000000	0,001211
590,000000	0,001366
589,000000	0,001309
588,000000	0,000980
587,000000	0,001152
586,000000	0,001387
585,000000	0,001175
584,000000	0,001273
583,000000	0,001304
582,000000	0,001062
581,000000	0,000874
580,000000	0,001435
579,000000	0,000947
578,000000	0,001315
577,000000	0,001397
576,000000	0,001618
575,000000	0,001467
574,000000	0,001443
573,000000	0,001570
572,000000	0,001389
571,000000	0,001589
570,000000	0,001411
569,000000	0,001489
568,000000	0,001480
567,000000	0,001493
566,000000	0,001688
565,000000	0,001446
564,000000	0,001417
563,000000	0,001481
562,000000	0,001982
561,000000	0,001596
560,000000	0,001864
559,000000	0,002300
558,000000	0,002296
557,000000	0,002406
556,000000	0,002360
555,000000	0,002105
554,000000	0,002211
553,000000	0,002191
552,000000	0,002152
551,000000	0,002122
550,000000	0,002529
549,000000	0,002542
548,000000	0,002597
547,000000	0,002724
546,000000	0,002864
545,000000	0,002940
544,000000	0,002834
543,000000	0,002894
542,000000	0,003152
541,000000	0,002941
540,000000	0,003127
539,000000	0,003098
538,000000	0,003198
537,000000	0,003440
536,000000	0,003292
535,000000	0,003046
534,000000	0,003759
533,000000	0,003619
532,000000	0,003888
531,000000	0,004228
530,000000	0,003911
529,000000	0,004110
528,000000	0,004335
527,000000	0,004387
526,000000	0,004459
525,000000	0,004670
524,000000	0,004494
523,000000	0,004789
522,000000	0,004948
521,000000	0,004932
520,000000	0,005613
519,000000	0,005018
518,000000	0,005492
517,000000	0,006079
516,000000	0,005889
515,000000	0,006074
514,000000	0,006262
513,000000	0,006223
512,000000	0,006419
511,000000	0,006498
510,000000	0,006582
509,000000	0,006494
508,000000	0,006786
507,000000	0,007311
506,000000	0,007301
505,000000	0,007605
504,000000	0,007935
503,000000	0,007970
502,000000	0,008223
501,000000	0,008554
500,000000	0,008870
499,000000	0,008639
498,000000	0,009008
497,000000	0,009589
496,000000	0,009660
495,000000	0,010379
494,000000	0,010342
493,000000	0,010494
492,000000	0,011146
491,000000	0,011037
490,000000	0,011546
489,000000	0,011948
488,000000	0,012116
487,000000	0,012607
486,000000	0,012423
485,000000	0,012523
484,000000	0,013128
483,000000	0,013688
482,000000	0,013598
481,000000	0,014425
480,000000	0,014512
479,000000	0,014900
478,000000	0,015010
477,000000	0,015494
476,000000	0,015655
475,000000	0,015840
474,000000	0,016213
473,000000	0,016723
472,000000	0,017064
471,000000	0,017551
470,000000	0,017755
469,000000	0,018329
468,000000	0,018273
467,000000	0,018108
466,000000	0,018803
465,000000	0,018905
464,000000	0,019440
463,000000	0,019439
462,000000	0,020258
461,000000	0,020305
460,000000	0,020708
459,000000	0,020845
458,000000	0,021543
457,000000	0,021789
456,000000	0,022034
455,000000	0,021994
454,000000	0,022425
453,000000	0,022916
452,000000	0,023409
451,000000	0,023288
450,000000	0,024319
449,000000	0,024363
448,000000	0,024642
447,000000	0,025066
446,000000	0,024615
445,000000	0,025116
444,000000	0,025713
443,000000	0,025867
442,000000	0,026331
441,000000	0,026204
440,000000	0,026606
439,000000	0,027162
438,000000	0,027172
437,000000	0,027420
436,000000	0,027827
435,000000	0,028154
434,000000	0,028300
433,000000	0,028593
432,000000	0,028999
431,000000	0,029240
430,000000	0,030204
429,000000	0,030165
428,000000	0,030431
427,000000	0,030929
426,000000	0,031031
425,000000	0,031066
424,000000	0,032009
423,000000	0,032162
422,000000	0,032676
421,000000	0,032637
420,000000	0,033399
419,000000	0,033447
418,000000	0,033619
417,000000	0,034145
416,000000	0,034566
415,000000	0,035207
414,000000	0,035460
413,000000	0,035914
412,000000	0,036190
411,000000	0,036382
410,000000	0,036972
409,000000	0,036968
408,000000	0,037621
407,000000	0,037758
406,000000	0,038287
405,000000	0,038623
404,000000	0,039202
403,000000	0,039890
402,000000	0,040295
401,000000	0,040730
400,000000	0,041014
399,000000	0,041647
398,000000	0,042336
397,000000	0,042925
396,000000	0,043300
395,000000	0,043845
394,000000	0,044225
393,000000	0,045091
392,000000	0,045630
391,000000	0,045905
390,000000	0,046846
