PE UV       SUBTECH     SPECTRUM    ASCII       PEDS        4.00        
   -1
47.Sample.Raw.asc
20/09/09
16:30:39.00
20/09/09
16:30:39.00
Analyst

390,000000
1
Lambda 25
501s11081509
PerkinElmer UV WinLab 6.0.3.0730 / Lambda25 1.27

480
2
1
0
0
Both on
1
1
1
None
0
0
0
0
 
 
0
0
0
0
0
 
 
 
0
 
0
326
0
 
0
 
 
 
0
0
0
 
0
 
 
 
0
 
 
0
0
0
0
0
 
 
 
 
0
0


#HDR
-1
-1
#GR
nm
A
1.0
0.0
700,000000
-1,000000
311
8
0,030773
0,024399
#DATA
700,000000	0,024531
699,000000	0,024716
698,000000	0,024588
697,000000	0,024865
696,000000	0,024686
695,000000	0,024681
694,000000	0,024808
693,000000	0,024956
692,000000	0,024906
691,000000	0,024614
690,000000	0,024780
689,000000	0,024697
688,000000	0,025007
687,000000	0,024829
686,000000	0,024909
685,000000	0,024953
684,000000	0,024920
683,000000	0,024781
682,000000	0,024951
681,000000	0,024882
680,000000	0,024399
679,000000	0,024836
678,000000	0,024907
677,000000	0,024628
676,000000	0,024988
675,000000	0,024744
674,000000	0,025155
673,000000	0,025005
672,000000	0,025209
671,000000	0,025329
670,000000	0,025221
669,000000	0,025368
668,000000	0,025703
667,000000	0,025642
666,000000	0,025333
665,000000	0,025765
664,000000	0,025252
663,000000	0,025620
662,000000	0,025539
661,000000	0,025416
660,000000	0,025615
659,000000	0,025493
658,000000	0,025309
657,000000	0,025643
656,000000	0,025570
655,000000	0,025374
654,000000	0,025977
653,000000	0,025509
652,000000	0,025579
651,000000	0,025585
650,000000	0,026165
649,000000	0,026068
648,000000	0,025955
647,000000	0,026087
646,000000	0,025968
645,000000	0,025914
644,000000	0,025835
643,000000	0,025915
642,000000	0,025937
641,000000	0,026007
640,000000	0,025925
639,000000	0,026090
638,000000	0,025910
637,000000	0,026475
636,000000	0,026265
635,000000	0,025805
634,000000	0,026300
633,000000	0,026035
632,000000	0,026286
631,000000	0,026509
630,000000	0,026661
629,000000	0,026581
628,000000	0,026659
627,000000	0,026778
626,000000	0,026691
625,000000	0,026939
624,000000	0,026810
623,000000	0,026820
622,000000	0,026613
621,000000	0,026816
620,000000	0,026896
619,000000	0,026677
618,000000	0,026682
617,000000	0,026840
616,000000	0,027140
615,000000	0,027042
614,000000	0,026962
613,000000	0,026878
612,000000	0,026912
611,000000	0,026881
610,000000	0,026884
609,000000	0,026742
608,000000	0,027007
607,000000	0,026856
606,000000	0,026994
605,000000	0,026764
604,000000	0,027086
603,000000	0,027294
602,000000	0,027067
601,000000	0,026872
600,000000	0,027225
599,000000	0,027150
598,000000	0,027490
597,000000	0,027002
596,000000	0,027483
595,000000	0,027610
594,000000	0,027430
593,000000	0,027346
592,000000	0,027713
591,000000	0,027470
590,000000	0,027709
589,000000	0,027170
588,000000	0,027097
587,000000	0,027403
586,000000	0,027199
585,000000	0,027363
584,000000	0,027253
583,000000	0,027307
582,000000	0,027271
581,000000	0,027283
580,000000	0,027376
579,000000	0,027141
578,000000	0,027323
577,000000	0,027438
576,000000	0,027465
575,000000	0,027398
574,000000	0,027466
573,000000	0,027407
572,000000	0,027434
571,000000	0,027433
570,000000	0,027599
569,000000	0,027370
568,000000	0,027343
567,000000	0,027118
566,000000	0,027540
565,000000	0,027661
564,000000	0,027555
563,000000	0,027438
562,000000	0,027448
561,000000	0,027632
560,000000	0,027584
559,000000	0,028014
558,000000	0,027735
557,000000	0,028300
556,000000	0,028054
555,000000	0,027618
554,000000	0,028139
553,000000	0,027878
552,000000	0,027759
551,000000	0,027984
550,000000	0,028122
549,000000	0,028119
548,000000	0,027795
547,000000	0,028250
546,000000	0,028127
545,000000	0,027981
544,000000	0,027976
543,000000	0,028111
542,000000	0,028167
541,000000	0,028114
540,000000	0,028178
539,000000	0,027862
538,000000	0,028015
537,000000	0,028146
536,000000	0,028113
535,000000	0,028043
534,000000	0,028260
533,000000	0,028335
532,000000	0,028208
531,000000	0,028529
530,000000	0,028036
529,000000	0,028390
528,000000	0,028312
527,000000	0,028271
526,000000	0,028394
525,000000	0,028632
524,000000	0,028316
523,000000	0,028378
522,000000	0,028503
521,000000	0,028365
520,000000	0,028563
519,000000	0,028210
518,000000	0,028572
517,000000	0,028883
516,000000	0,028789
515,000000	0,028575
514,000000	0,028538
513,000000	0,028452
512,000000	0,028548
511,000000	0,028462
510,000000	0,028488
509,000000	0,028286
508,000000	0,028344
507,000000	0,028562
506,000000	0,028527
505,000000	0,028545
504,000000	0,028775
503,000000	0,028730
502,000000	0,028779
501,000000	0,028687
500,000000	0,028988
499,000000	0,028545
498,000000	0,028835
497,000000	0,029003
496,000000	0,028839
495,000000	0,029237
494,000000	0,028839
493,000000	0,028932
492,000000	0,029146
491,000000	0,029056
490,000000	0,029013
489,000000	0,028962
488,000000	0,028996
487,000000	0,029378
486,000000	0,028738
485,000000	0,028668
484,000000	0,028772
483,000000	0,029139
482,000000	0,028563
481,000000	0,029027
480,000000	0,029215
479,000000	0,029297
478,000000	0,029174
477,000000	0,029025
476,000000	0,029086
475,000000	0,029193
474,000000	0,029016
473,000000	0,029190
472,000000	0,028961
471,000000	0,029096
470,000000	0,029427
469,000000	0,029362
468,000000	0,029188
467,000000	0,029077
466,000000	0,029256
465,000000	0,029049
464,000000	0,029012
463,000000	0,028979
462,000000	0,029167
461,000000	0,029162
460,000000	0,029122
459,000000	0,028913
458,000000	0,029361
457,000000	0,029327
456,000000	0,029069
455,000000	0,029140
454,000000	0,029221
453,000000	0,029242
452,000000	0,029356
451,000000	0,028863
450,000000	0,029314
449,000000	0,029403
448,000000	0,029339
447,000000	0,029196
446,000000	0,028846
445,000000	0,029215
444,000000	0,029293
443,000000	0,029051
442,000000	0,029451
441,000000	0,029167
440,000000	0,028959
439,000000	0,029474
438,000000	0,029240
437,000000	0,028762
436,000000	0,029301
435,000000	0,029348
434,000000	0,029180
433,000000	0,028976
432,000000	0,029382
431,000000	0,029135
430,000000	0,029235
429,000000	0,029104
428,000000	0,029379
427,000000	0,029121
426,000000	0,029382
425,000000	0,028800
424,000000	0,029395
423,000000	0,029356
422,000000	0,029312
421,000000	0,029981
420,000000	0,029838
419,000000	0,029665
418,000000	0,029634
417,000000	0,029768
416,000000	0,030131
415,000000	0,030015
414,000000	0,030206
413,000000	0,030163
412,000000	0,030307
411,000000	0,030098
410,000000	0,030323
409,000000	0,030017
408,000000	0,030215
407,000000	0,029984
406,000000	0,030285
405,000000	0,029946
404,000000	0,030313
403,000000	0,030326
402,000000	0,030233
401,000000	0,030317
400,000000	0,030566
399,000000	0,030440
398,000000	0,030773
397,000000	0,030631
396,000000	0,030688
395,000000	0,030184
394,000000	0,030202
393,000000	0,030684
392,000000	0,030325
391,000000	0,030388
390,000000	0,030746
