PE UV       SUBTECH     SPECTRUM    ASCII       PEDS        4.00        
   -1
48.Sample.Raw.asc
20/09/09
16:33:01.00
20/09/09
16:33:01.00
Analyst

390,000000
1
Lambda 25
501s11081509
PerkinElmer UV WinLab 6.0.3.0730 / Lambda25 1.27

480
2
1
0
0
Both on
1
1
1
None
0
0
0
0
 
 
0
0
0
0
0
 
 
 
0
 
0
326
0
 
0
 
 
 
0
0
0
 
0
 
 
 
0
 
 
0
0
0
0
0
 
 
 
 
0
0


#HDR
-1
-1
#GR
nm
A
1.0
0.0
700,000000
-1,000000
311
8
2,247366
0,468270
#DATA
700,000000	0,468270
699,000000	0,469869
698,000000	0,471254
697,000000	0,472907
696,000000	0,474443
695,000000	0,475782
694,000000	0,477717
693,000000	0,479137
692,000000	0,480270
691,000000	0,481552
690,000000	0,483287
689,000000	0,484710
688,000000	0,486593
687,000000	0,487806
686,000000	0,489349
685,000000	0,491336
684,000000	0,492831
683,000000	0,494424
682,000000	0,496345
681,000000	0,498223
680,000000	0,499475
679,000000	0,502019
678,000000	0,503376
677,000000	0,505384
676,000000	0,506965
675,000000	0,508726
674,000000	0,511189
673,000000	0,512955
672,000000	0,514689
671,000000	0,516376
670,000000	0,518327
669,000000	0,520892
668,000000	0,523368
667,000000	0,524685
666,000000	0,526883
665,000000	0,529389
664,000000	0,531110
663,000000	0,532821
662,000000	0,535190
661,000000	0,536925
660,000000	0,539087
659,000000	0,541048
658,000000	0,542846
657,000000	0,545383
656,000000	0,547641
655,000000	0,549792
654,000000	0,552084
653,000000	0,553468
652,000000	0,555930
651,000000	0,557991
650,000000	0,561187
649,000000	0,563123
648,000000	0,565854
647,000000	0,567815
646,000000	0,570252
645,000000	0,572839
644,000000	0,575024
643,000000	0,576962
642,000000	0,579933
641,000000	0,582730
640,000000	0,585065
639,000000	0,587987
638,000000	0,590421
637,000000	0,593485
636,000000	0,596039
635,000000	0,598483
634,000000	0,601459
633,000000	0,604550
632,000000	0,607075
631,000000	0,609969
630,000000	0,612824
629,000000	0,615770
628,000000	0,618524
627,000000	0,621451
626,000000	0,623899
625,000000	0,627417
624,000000	0,629839
623,000000	0,633294
622,000000	0,635772
621,000000	0,639517
620,000000	0,642369
619,000000	0,645456
618,000000	0,648692
617,000000	0,651875
616,000000	0,654989
615,000000	0,658119
614,000000	0,661435
613,000000	0,664789
612,000000	0,667838
611,000000	0,671287
610,000000	0,674985
609,000000	0,678507
608,000000	0,682113
607,000000	0,685392
606,000000	0,689046
605,000000	0,692569
604,000000	0,696589
603,000000	0,699755
602,000000	0,703570
601,000000	0,707471
600,000000	0,711409
599,000000	0,715396
598,000000	0,719288
597,000000	0,723004
596,000000	0,727440
595,000000	0,731149
594,000000	0,735443
593,000000	0,739786
592,000000	0,744009
591,000000	0,747985
590,000000	0,753010
589,000000	0,756971
588,000000	0,762227
587,000000	0,766020
586,000000	0,770927
585,000000	0,776226
584,000000	0,781307
583,000000	0,786123
582,000000	0,791454
581,000000	0,797006
580,000000	0,803104
579,000000	0,807384
578,000000	0,813916
577,000000	0,820221
576,000000	0,825440
575,000000	0,831007
574,000000	0,836989
573,000000	0,844073
572,000000	0,848656
571,000000	0,854866
570,000000	0,861001
569,000000	0,866498
568,000000	0,872423
567,000000	0,877970
566,000000	0,883050
565,000000	0,888628
564,000000	0,894223
563,000000	0,899160
562,000000	0,904872
561,000000	0,909049
560,000000	0,916372
559,000000	0,928772
558,000000	0,932628
557,000000	0,937307
556,000000	0,942813
555,000000	0,945838
554,000000	0,951407
553,000000	0,954789
552,000000	0,960036
551,000000	0,964033
550,000000	0,968211
549,000000	0,973878
548,000000	0,976555
547,000000	0,980467
546,000000	0,984831
545,000000	0,989922
544,000000	0,993619
543,000000	0,997760
542,000000	1,002501
541,000000	1,006601
540,000000	1,010894
539,000000	1,013823
538,000000	1,019662
537,000000	1,024193
536,000000	1,028140
535,000000	1,035552
534,000000	1,041397
533,000000	1,046818
532,000000	1,052706
531,000000	1,059519
530,000000	1,066038
529,000000	1,074499
528,000000	1,082264
527,000000	1,091238
526,000000	1,100889
525,000000	1,111245
524,000000	1,121071
523,000000	1,133485
522,000000	1,143702
521,000000	1,154152
520,000000	1,166517
519,000000	1,177623
518,000000	1,190389
517,000000	1,203332
516,000000	1,216192
515,000000	1,225701
514,000000	1,234368
513,000000	1,245232
512,000000	1,248112
511,000000	1,255332
510,000000	1,259924
509,000000	1,262842
508,000000	1,265688
507,000000	1,266645
506,000000	1,268684
505,000000	1,273993
504,000000	1,273276
503,000000	1,276450
502,000000	1,279534
501,000000	1,282863
500,000000	1,288157
499,000000	1,288950
498,000000	1,294256
497,000000	1,301047
496,000000	1,304833
495,000000	1,312901
494,000000	1,319855
493,000000	1,328692
492,000000	1,336103
491,000000	1,345100
490,000000	1,354193
489,000000	1,366670
488,000000	1,379519
487,000000	1,391641
486,000000	1,405699
485,000000	1,417256
484,000000	1,432768
483,000000	1,444826
482,000000	1,462058
481,000000	1,476589
480,000000	1,488960
479,000000	1,504810
478,000000	1,520325
477,000000	1,533556
476,000000	1,546820
475,000000	1,562751
474,000000	1,572072
473,000000	1,583553
472,000000	1,592162
471,000000	1,601385
470,000000	1,614665
469,000000	1,624183
468,000000	1,632964
467,000000	1,645997
466,000000	1,654346
465,000000	1,668308
464,000000	1,679182
463,000000	1,692507
462,000000	1,700625
461,000000	1,720514
460,000000	1,728805
459,000000	1,740976
458,000000	1,756665
457,000000	1,771406
456,000000	1,782015
455,000000	1,799336
454,000000	1,813349
453,000000	1,823762
452,000000	1,835382
451,000000	1,850844
450,000000	1,858154
449,000000	1,872823
448,000000	1,890632
447,000000	1,911511
446,000000	1,913017
445,000000	1,932936
444,000000	1,937551
443,000000	1,934244
442,000000	1,948207
441,000000	1,958468
440,000000	1,969535
439,000000	1,973784
438,000000	1,971750
437,000000	1,992623
436,000000	2,000473
435,000000	1,992097
434,000000	2,002495
433,000000	2,014968
432,000000	2,040170
431,000000	2,019860
430,000000	2,029294
429,000000	2,052046
428,000000	2,046897
427,000000	2,062161
426,000000	2,079570
425,000000	2,068571
424,000000	2,096517
423,000000	2,103130
422,000000	2,105079
421,000000	2,104874
420,000000	2,119469
419,000000	2,111034
418,000000	2,124412
417,000000	2,132694
416,000000	2,147004
415,000000	2,145228
414,000000	2,159812
413,000000	2,151474
412,000000	2,169405
411,000000	2,160596
410,000000	2,174771
409,000000	2,174451
408,000000	2,185007
407,000000	2,190955
406,000000	2,181801
405,000000	2,199614
404,000000	2,199233
403,000000	2,203426
402,000000	2,194823
401,000000	2,220986
400,000000	2,217480
399,000000	2,220338
398,000000	2,234729
397,000000	2,222019
396,000000	2,235814
395,000000	2,215167
394,000000	2,218604
393,000000	2,247366
392,000000	2,222980
391,000000	2,236776
390,000000	2,226126
