PE UV       SUBTECH     SPECTRUM    ASCII       PEDS        4.00        
   -1
49.Sample.Raw.asc
20/09/09
16:35:29.00
20/09/09
16:35:29.00
Analyst

390,000000
1
Lambda 25
501s11081509
PerkinElmer UV WinLab 6.0.3.0730 / Lambda25 1.27

480
2
1
0
0
Both on
1
1
1
None
0
0
0
0
 
 
0
0
0
0
0
 
 
 
0
 
0
326
0
 
0
 
 
 
0
0
0
 
0
 
 
 
0
 
 
0
0
0
0
0
 
 
 
 
0
0


#HDR
-1
-1
#GR
nm
A
1.0
0.0
700,000000
-1,000000
311
8
1,330749
0,001904
#DATA
700,000000	0,002280
699,000000	0,002380
698,000000	0,002492
697,000000	0,002504
696,000000	0,002518
695,000000	0,002481
694,000000	0,002341
693,000000	0,002557
692,000000	0,002591
691,000000	0,002480
690,000000	0,002394
689,000000	0,002292
688,000000	0,002362
687,000000	0,002243
686,000000	0,002525
685,000000	0,002550
684,000000	0,002518
683,000000	0,001904
682,000000	0,002140
681,000000	0,002467
680,000000	0,001905
679,000000	0,002335
678,000000	0,002043
677,000000	0,002084
676,000000	0,002578
675,000000	0,002186
674,000000	0,002546
673,000000	0,002398
672,000000	0,002390
671,000000	0,002224
670,000000	0,002357
669,000000	0,002714
668,000000	0,002908
667,000000	0,002823
666,000000	0,002505
665,000000	0,002799
664,000000	0,002518
663,000000	0,002792
662,000000	0,002485
661,000000	0,002602
660,000000	0,002495
659,000000	0,002574
658,000000	0,002430
657,000000	0,002508
656,000000	0,002405
655,000000	0,002634
654,000000	0,002417
653,000000	0,002328
652,000000	0,002299
651,000000	0,002204
650,000000	0,002785
649,000000	0,002649
648,000000	0,002665
647,000000	0,002508
646,000000	0,002371
645,000000	0,002130
644,000000	0,002297
643,000000	0,002284
642,000000	0,002201
641,000000	0,002288
640,000000	0,002209
639,000000	0,002646
638,000000	0,002418
637,000000	0,002530
636,000000	0,002618
635,000000	0,002336
634,000000	0,002510
633,000000	0,002273
632,000000	0,002519
631,000000	0,002715
630,000000	0,002790
629,000000	0,002691
628,000000	0,002758
627,000000	0,002921
626,000000	0,002770
625,000000	0,002978
624,000000	0,002979
623,000000	0,002737
622,000000	0,002454
621,000000	0,002720
620,000000	0,002917
619,000000	0,002697
618,000000	0,002864
617,000000	0,002663
616,000000	0,002839
615,000000	0,002826
614,000000	0,002910
613,000000	0,002751
612,000000	0,002693
611,000000	0,002822
610,000000	0,002764
609,000000	0,002731
608,000000	0,002606
607,000000	0,002626
606,000000	0,002893
605,000000	0,002692
604,000000	0,002800
603,000000	0,002807
602,000000	0,002737
601,000000	0,002574
600,000000	0,002882
599,000000	0,002966
598,000000	0,003035
597,000000	0,002578
596,000000	0,003053
595,000000	0,003378
594,000000	0,003254
593,000000	0,003127
592,000000	0,003198
591,000000	0,003029
590,000000	0,002984
589,000000	0,002748
588,000000	0,002909
587,000000	0,002857
586,000000	0,003086
585,000000	0,003147
584,000000	0,002966
583,000000	0,002776
582,000000	0,002855
581,000000	0,002712
580,000000	0,003078
579,000000	0,002810
578,000000	0,002902
577,000000	0,002743
576,000000	0,002957
575,000000	0,003011
574,000000	0,002894
573,000000	0,002640
572,000000	0,002974
571,000000	0,003034
570,000000	0,002874
569,000000	0,002676
568,000000	0,002587
567,000000	0,002749
566,000000	0,002765
565,000000	0,002999
564,000000	0,002711
563,000000	0,002838
562,000000	0,002851
561,000000	0,002771
560,000000	0,003092
559,000000	0,003369
558,000000	0,003741
557,000000	0,003480
556,000000	0,003523
555,000000	0,003307
554,000000	0,003600
553,000000	0,003162
552,000000	0,003188
551,000000	0,003571
550,000000	0,003594
549,000000	0,003999
548,000000	0,003518
547,000000	0,003712
546,000000	0,003776
545,000000	0,003477
544,000000	0,003460
543,000000	0,003473
542,000000	0,003621
541,000000	0,003311
540,000000	0,003928
539,000000	0,003563
538,000000	0,003914
537,000000	0,003845
536,000000	0,003731
535,000000	0,003523
534,000000	0,004045
533,000000	0,004058
532,000000	0,004097
531,000000	0,004240
530,000000	0,003966
529,000000	0,004067
528,000000	0,004340
527,000000	0,004229
526,000000	0,004198
525,000000	0,004469
524,000000	0,004195
523,000000	0,004234
522,000000	0,004206
521,000000	0,004330
520,000000	0,004626
519,000000	0,004467
518,000000	0,004809
517,000000	0,004891
516,000000	0,004842
515,000000	0,004792
514,000000	0,004899
513,000000	0,004731
512,000000	0,004782
511,000000	0,004857
510,000000	0,005125
509,000000	0,004482
508,000000	0,005302
507,000000	0,005314
506,000000	0,005299
505,000000	0,005615
504,000000	0,005505
503,000000	0,005539
502,000000	0,005963
501,000000	0,005647
500,000000	0,006104
499,000000	0,005874
498,000000	0,006078
497,000000	0,006308
496,000000	0,006258
495,000000	0,006748
494,000000	0,006608
493,000000	0,006746
492,000000	0,007117
491,000000	0,007153
490,000000	0,007304
489,000000	0,007306
488,000000	0,007457
487,000000	0,007693
486,000000	0,007695
485,000000	0,007640
484,000000	0,008241
483,000000	0,008024
482,000000	0,007974
481,000000	0,008776
480,000000	0,008943
479,000000	0,009032
478,000000	0,009437
477,000000	0,009574
476,000000	0,009767
475,000000	0,009964
474,000000	0,010118
473,000000	0,010632
472,000000	0,010951
471,000000	0,011478
470,000000	0,011815
469,000000	0,012232
468,000000	0,012376
467,000000	0,012668
466,000000	0,013220
465,000000	0,013516
464,000000	0,013942
463,000000	0,014013
462,000000	0,015052
461,000000	0,015803
460,000000	0,016073
459,000000	0,016695
458,000000	0,017633
457,000000	0,018171
456,000000	0,018958
455,000000	0,019589
454,000000	0,020337
453,000000	0,021028
452,000000	0,022678
451,000000	0,023283
450,000000	0,024690
449,000000	0,025938
448,000000	0,027128
447,000000	0,029246
446,000000	0,030148
445,000000	0,032051
444,000000	0,034075
443,000000	0,036469
442,000000	0,039108
441,000000	0,041696
440,000000	0,045190
439,000000	0,049519
438,000000	0,054141
437,000000	0,058695
436,000000	0,065192
435,000000	0,072439
434,000000	0,080500
433,000000	0,090368
432,000000	0,102748
431,000000	0,117239
430,000000	0,136579
429,000000	0,156711
428,000000	0,179572
427,000000	0,205734
426,000000	0,236626
425,000000	0,268349
424,000000	0,307781
423,000000	0,351426
422,000000	0,399745
421,000000	0,447988
420,000000	0,507468
419,000000	0,570497
418,000000	0,637312
417,000000	0,701695
416,000000	0,772167
415,000000	0,845453
414,000000	0,921631
413,000000	0,992826
412,000000	1,062155
411,000000	1,125939
410,000000	1,181325
409,000000	1,226633
408,000000	1,263223
407,000000	1,288196
406,000000	1,305531
405,000000	1,318516
404,000000	1,323902
403,000000	1,328910
402,000000	1,329795
401,000000	1,330749
400,000000	1,327770
399,000000	1,326091
398,000000	1,324029
397,000000	1,320974
396,000000	1,318672
395,000000	1,314352
394,000000	1,311835
393,000000	1,309109
392,000000	1,304957
391,000000	1,303662
390,000000	1,294231
