PE UV       SUBTECH     SPECTRUM    ASCII       PEDS        4.00        
   -1
branco.Sample.Raw.asc
20/09/09
15:52:28.00
20/09/09
15:52:28.00
Analyst

390,000000
1
Lambda 25
501s11081509
PerkinElmer UV WinLab 6.0.3.0730 / Lambda25 1.27

480
2
1
0
0
Both on
1
1
1
None
0
0
0
0
 
 
0
0
0
0
0
 
 
 
0
 
0
326
0
 
0
 
 
 
0
0
0
 
0
 
 
 
0
 
 
0
0
0
0
0
 
 
 
 
0
0


#HDR
-1
-1
#GR
nm
A
1.0
0.0
700,000000
-1,000000
311
8
0,001329
-0,000794
#DATA
700,000000	0,000242
699,000000	0,000373
698,000000	0,000365
697,000000	0,000619
696,000000	0,000419
695,000000	0,000546
694,000000	0,000521
693,000000	0,000571
692,000000	0,000493
691,000000	0,000489
690,000000	0,000436
689,000000	0,000382
688,000000	0,000494
687,000000	0,000243
686,000000	0,000325
685,000000	0,000395
684,000000	0,000400
683,000000	0,000000
682,000000	-0,000124
681,000000	0,000033
680,000000	0,000000
679,000000	0,000359
678,000000	-0,000091
677,000000	-0,000033
676,000000	0,000239
675,000000	0,000041
674,000000	0,000058
673,000000	0,000198
672,000000	0,000450
671,000000	0,000083
670,000000	0,000203
669,000000	0,000417
668,000000	0,000719
667,000000	0,000835
666,000000	0,000348
665,000000	0,000608
664,000000	0,000364
663,000000	0,000612
662,000000	0,000356
661,000000	0,000447
660,000000	0,000410
659,000000	0,000145
658,000000	0,000195
657,000000	0,000311
656,000000	0,000294
655,000000	0,000381
654,000000	0,000493
653,000000	-0,000050
652,000000	-0,000050
651,000000	-0,000062
650,000000	0,000659
649,000000	0,000548
648,000000	0,000423
647,000000	0,000440
646,000000	0,000220
645,000000	0,000320
644,000000	0,000149
643,000000	0,000137
642,000000	0,000457
641,000000	-0,000017
640,000000	0,000166
639,000000	0,000398
638,000000	0,000054
637,000000	0,000311
636,000000	0,000274
635,000000	0,000366
634,000000	0,000390
633,000000	0,000594
632,000000	0,000623
631,000000	0,000835
630,000000	0,000702
629,000000	0,000565
628,000000	0,000594
627,000000	0,000740
626,000000	0,000877
625,000000	0,000819
624,000000	0,000790
623,000000	0,000574
622,000000	0,000561
621,000000	0,000856
620,000000	0,000520
619,000000	0,000270
618,000000	0,000586
617,000000	0,000357
616,000000	0,000466
615,000000	0,000536
614,000000	0,000703
613,000000	0,000528
612,000000	0,000445
611,000000	0,000536
610,000000	0,000541
609,000000	0,000449
608,000000	0,000632
607,000000	0,000620
606,000000	0,000620
605,000000	0,000461
604,000000	0,000707
603,000000	0,000798
602,000000	0,000578
601,000000	0,000395
600,000000	0,000569
599,000000	0,000586
598,000000	0,000793
597,000000	0,000357
596,000000	0,000806
595,000000	0,001043
594,000000	0,001022
593,000000	0,000607
592,000000	0,000861
591,000000	0,000599
590,000000	0,000466
589,000000	0,000375
588,000000	0,000317
587,000000	0,000417
586,000000	0,000451
585,000000	0,000409
584,000000	0,000464
583,000000	0,000314
582,000000	0,000226
581,000000	0,000206
580,000000	0,000164
579,000000	0,000160
578,000000	0,000497
577,000000	0,000274
576,000000	0,000164
575,000000	0,000127
574,000000	0,000325
573,000000	0,000321
572,000000	0,000114
571,000000	0,000110
570,000000	0,000246
569,000000	-0,000030
568,000000	-0,000106
567,000000	-0,000140
566,000000	0,000093
565,000000	0,000106
564,000000	-0,000114
563,000000	0,000089
562,000000	0,000191
561,000000	0,000034
560,000000	-0,000008
559,000000	0,000483
558,000000	0,000415
557,000000	0,000682
556,000000	0,000563
555,000000	0,000335
554,000000	0,000182
553,000000	0,000254
552,000000	0,000301
551,000000	0,000347
550,000000	0,000550
549,000000	0,000309
548,000000	0,000334
547,000000	0,000440
546,000000	0,000245
545,000000	0,000364
544,000000	0,000355
543,000000	0,000360
542,000000	0,000321
541,000000	0,000415
540,000000	0,000326
539,000000	-0,000055
538,000000	0,000313
537,000000	0,000372
536,000000	0,000063
535,000000	0,000123
534,000000	0,000431
533,000000	0,000448
532,000000	0,000321
531,000000	0,000592
530,000000	0,000097
529,000000	0,000402
528,000000	0,000342
527,000000	0,000313
526,000000	0,000710
525,000000	0,000773
524,000000	0,000300
523,000000	0,000423
522,000000	0,000782
521,000000	0,000355
520,000000	0,000617
519,000000	0,000173
518,000000	0,000490
517,000000	0,000768
516,000000	0,000612
515,000000	0,000177
514,000000	0,000667
513,000000	0,000317
512,000000	0,000177
511,000000	0,000186
510,000000	0,000207
509,000000	-0,000127
508,000000	0,000164
507,000000	0,000194
506,000000	0,000105
505,000000	0,000253
504,000000	0,000430
503,000000	0,000502
502,000000	0,000371
501,000000	0,000194
500,000000	0,000240
499,000000	0,000278
498,000000	0,000240
497,000000	0,000269
496,000000	0,000147
495,000000	0,000559
494,000000	0,000433
493,000000	0,000336
492,000000	0,000483
491,000000	0,000349
490,000000	0,000395
489,000000	0,000277
488,000000	0,000454
487,000000	0,000311
486,000000	0,000248
485,000000	0,000021
484,000000	0,000277
483,000000	0,000399
482,000000	0,000013
481,000000	0,000315
480,000000	0,000546
479,000000	0,000382
478,000000	0,000546
477,000000	0,000222
476,000000	0,000357
475,000000	0,000134
474,000000	0,000323
473,000000	0,000218
472,000000	0,000181
471,000000	0,000504
470,000000	0,000399
469,000000	0,000441
468,000000	0,000332
467,000000	-0,000114
466,000000	0,000202
465,000000	0,000147
464,000000	0,000067
463,000000	0,000101
462,000000	0,000287
461,000000	0,000291
460,000000	0,000165
459,000000	0,000148
458,000000	0,000334
457,000000	0,000072
456,000000	0,000224
455,000000	0,000021
454,000000	-0,000351
453,000000	-0,000017
452,000000	0,000372
451,000000	0,000199
450,000000	0,000330
449,000000	0,000390
448,000000	0,000360
447,000000	0,000513
446,000000	0,000187
445,000000	0,000229
444,000000	-0,000064
443,000000	0,000395
442,000000	0,000042
441,000000	0,000200
440,000000	0,000153
439,000000	0,000077
438,000000	-0,000132
437,000000	-0,000592
436,000000	0,000102
435,000000	-0,000328
434,000000	-0,000542
433,000000	-0,000132
432,000000	0,000030
431,000000	0,000060
430,000000	0,000085
429,000000	-0,000333
428,000000	-0,000205
427,000000	0,000017
426,000000	-0,000794
425,000000	-0,000619
424,000000	-0,000423
423,000000	-0,000056
422,000000	-0,000367
421,000000	0,000830
420,000000	0,000975
419,000000	0,000868
418,000000	0,000744
417,000000	0,000598
416,000000	0,000975
415,000000	0,000876
414,000000	0,001099
413,000000	0,001329
412,000000	0,001222
411,000000	0,001034
410,000000	0,001298
409,000000	0,000859
408,000000	0,001012
407,000000	0,001080
406,000000	0,000871
405,000000	0,000867
404,000000	0,000858
403,000000	0,000883
402,000000	0,000985
401,000000	0,000865
400,000000	0,001096
399,000000	0,001087
398,000000	0,001053
397,000000	0,000916
396,000000	0,001189
395,000000	0,000941
394,000000	0,000758
393,000000	0,001000
392,000000	0,000890
391,000000	0,000898
390,000000	0,001000
