nm	Abs
700.000000	0.010151
699.000000	0.010475
698.000000	0.010384
697.000000	0.010471
696.000000	0.010410
695.000000	0.010275
694.000000	0.010372
693.000000	0.010251
692.000000	0.010311
691.000000	0.010627
690.000000	0.010670
689.000000	0.010640
688.000000	0.010629
687.000000	0.010972
686.000000	0.010752
685.000000	0.010764
684.000000	0.010788
683.000000	0.010333
682.000000	0.011207
681.000000	0.010914
680.000000	0.010933
679.000000	0.010818
678.000000	0.011064
677.000000	0.011208
676.000000	0.011173
675.000000	0.011342
674.000000	0.011241
673.000000	0.011611
672.000000	0.011370
671.000000	0.011523
670.000000	0.011100
669.000000	0.011586
668.000000	0.011597
667.000000	0.011349
666.000000	0.011583
665.000000	0.011730
664.000000	0.011914
663.000000	0.011883
662.000000	0.011987
661.000000	0.012060
660.000000	0.011849
659.000000	0.011640
658.000000	0.011829
657.000000	0.012063
656.000000	0.012097
655.000000	0.012140
654.000000	0.012208
653.000000	0.012233
652.000000	0.012140
651.000000	0.012269
650.000000	0.012399
649.000000	0.012018
648.000000	0.012315
647.000000	0.012361
646.000000	0.012483
645.000000	0.012626
644.000000	0.012657
643.000000	0.012818
642.000000	0.012579
641.000000	0.012693
640.000000	0.012479
639.000000	0.012815
638.000000	0.012969
637.000000	0.012273
636.000000	0.012739
635.000000	0.012884
634.000000	0.012984
633.000000	0.013040
632.000000	0.013293
631.000000	0.013344
630.000000	0.013231
629.000000	0.013157
628.000000	0.013192
627.000000	0.013112
626.000000	0.013362
625.000000	0.013351
624.000000	0.013365
623.000000	0.013602
622.000000	0.013622
621.000000	0.013521
620.000000	0.013704
619.000000	0.013827
618.000000	0.013401
617.000000	0.013648
616.000000	0.013834
615.000000	0.014043
614.000000	0.013785
613.000000	0.014006
612.000000	0.013951
611.000000	0.013879
610.000000	0.014076
609.000000	0.014170
608.000000	0.013857
607.000000	0.014182
606.000000	0.014355
605.000000	0.014374
604.000000	0.014452
603.000000	0.014789
602.000000	0.014737
601.000000	0.014602
600.000000	0.014631
599.000000	0.014406
598.000000	0.014771
597.000000	0.014834
596.000000	0.014811
595.000000	0.015126
594.000000	0.015145
593.000000	0.015115
592.000000	0.014855
591.000000	0.015289
590.000000	0.014869
589.000000	0.014810
588.000000	0.014919
587.000000	0.015471
586.000000	0.015258
585.000000	0.015380
584.000000	0.015563
583.000000	0.015621
582.000000	0.015307
581.000000	0.015986
580.000000	0.015768
579.000000	0.015492
578.000000	0.015939
577.000000	0.015876
576.000000	0.015903
575.000000	0.016278
574.000000	0.016127
573.000000	0.015926
572.000000	0.015840
571.000000	0.016141
570.000000	0.016279
569.000000	0.016221
568.000000	0.016714
567.000000	0.016589
566.000000	0.016669
565.000000	0.016719
564.000000	0.016769
563.000000	0.016640
562.000000	0.016627
561.000000	0.016708
560.000000	0.016378
559.000000	0.017271
558.000000	0.016934
557.000000	0.017146
556.000000	0.017309
555.000000	0.017350
554.000000	0.017397
553.000000	0.016995
552.000000	0.017489
551.000000	0.017615
550.000000	0.017920
549.000000	0.017641
548.000000	0.017929
547.000000	0.017841
546.000000	0.018044
545.000000	0.018175
544.000000	0.018047
543.000000	0.018001
542.000000	0.017760
541.000000	0.018117
540.000000	0.018456
539.000000	0.018246
538.000000	0.018686
537.000000	0.018818
536.000000	0.018587
535.000000	0.018724
534.000000	0.018867
533.000000	0.018767
532.000000	0.018965
531.000000	0.018993
530.000000	0.019048
529.000000	0.019170
528.000000	0.019653
527.000000	0.019417
526.000000	0.019536
525.000000	0.019469
524.000000	0.019849
523.000000	0.019476
522.000000	0.019822
521.000000	0.020096
520.000000	0.020119
519.000000	0.019980
518.000000	0.020129
517.000000	0.020353
516.000000	0.020226
515.000000	0.020137
514.000000	0.020462
513.000000	0.020347
512.000000	0.020253
511.000000	0.020656
510.000000	0.020827
509.000000	0.021024
508.000000	0.021309
507.000000	0.021203
506.000000	0.021103
505.000000	0.021417
504.000000	0.021659
503.000000	0.021352
502.000000	0.021654
501.000000	0.021871
500.000000	0.021958
499.000000	0.021912
498.000000	0.021765
497.000000	0.022121
496.000000	0.021948
495.000000	0.022178
494.000000	0.022096
493.000000	0.022287
492.000000	0.022369
491.000000	0.022564
490.000000	0.022727
489.000000	0.022733
488.000000	0.023255
487.000000	0.023101
486.000000	0.023464
485.000000	0.023376
484.000000	0.023325
483.000000	0.023183
482.000000	0.023169
481.000000	0.023697
480.000000	0.023875
479.000000	0.024157
478.000000	0.024261
477.000000	0.024236
476.000000	0.023905
475.000000	0.024172
474.000000	0.024349
473.000000	0.024552
472.000000	0.024649
471.000000	0.024754
470.000000	0.024618
469.000000	0.025068
468.000000	0.024900
467.000000	0.025155
466.000000	0.024939
465.000000	0.025067
464.000000	0.025533
463.000000	0.026001
462.000000	0.025798
461.000000	0.025746
460.000000	0.025908
459.000000	0.026147
458.000000	0.026097
457.000000	0.026054
456.000000	0.026637
455.000000	0.026378
454.000000	0.027007
453.000000	0.027002
452.000000	0.027180
451.000000	0.027105
450.000000	0.027345
449.000000	0.027524
448.000000	0.027525
447.000000	0.027373
446.000000	0.027677
445.000000	0.027890
444.000000	0.027624
443.000000	0.027653
442.000000	0.028123
441.000000	0.028548
440.000000	0.028499
439.000000	0.028719
438.000000	0.028506
437.000000	0.029031
436.000000	0.029092
435.000000	0.029051
434.000000	0.028664
433.000000	0.028929
432.000000	0.029135
431.000000	0.029856
430.000000	0.029407
429.000000	0.030708
428.000000	0.030308
427.000000	0.030453
426.000000	0.029879
425.000000	0.030559
424.000000	0.030576
423.000000	0.030367
422.000000	0.031115
421.000000	0.030924
420.000000	0.031315
419.000000	0.031263
418.000000	0.031316
417.000000	0.031823
416.000000	0.031773
415.000000	0.031952
414.000000	0.032194
413.000000	0.032627
412.000000	0.032742
411.000000	0.032517
410.000000	0.033029
409.000000	0.032968
408.000000	0.033053
407.000000	0.033087
406.000000	0.033282
405.000000	0.033567
404.000000	0.033884
403.000000	0.034014
402.000000	0.034240
401.000000	0.034676
400.000000	0.034725
399.000000	0.035072
398.000000	0.035113
397.000000	0.035177
396.000000	0.035361
395.000000	0.035641
394.000000	0.036002
393.000000	0.036343
392.000000	0.036314
391.000000	0.036530
390.000000	0.036926
