PE UV       SUBTECH     SPECTRUM    ASCII       PEDS        4.00        
   -1
17.Sample.Raw.asc
20/11/03
14:40:20.00
20/11/03
14:40:20.00
Analyst

390,000000
1
Lambda 25
501s11081509
PerkinElmer UV WinLab 6.0.3.0730 / Lambda25 1.27

480
2
1
0
0
Both on
1
1
1
None
0
0
0
0
 
 
0
0
0
0
0
 
 
 
0
 
0
326
0
 
0
 
 
 
0
0
0
 
0
 
 
 
0
 
 
0
0
0
0
0
 
 
 
 
0
0


#HDR
-1
-1
#GR
nm
A
1.0
0.0
700,000000
-1,000000
311
8
0,009649
0,001308
#DATA
700,000000	0,001477
699,000000	0,001618
698,000000	0,001478
697,000000	0,001339
696,000000	0,001643
695,000000	0,001611
694,000000	0,001435
693,000000	0,001595
692,000000	0,001773
691,000000	0,001452
690,000000	0,001432
689,000000	0,001938
688,000000	0,001556
687,000000	0,001503
686,000000	0,001565
685,000000	0,001633
684,000000	0,001434
683,000000	0,001613
682,000000	0,001613
681,000000	0,001503
680,000000	0,001383
679,000000	0,001507
678,000000	0,001680
677,000000	0,001678
676,000000	0,001607
675,000000	0,001442
674,000000	0,001877
673,000000	0,001410
672,000000	0,001340
671,000000	0,001899
670,000000	0,001791
669,000000	0,001825
668,000000	0,001308
667,000000	0,001619
666,000000	0,001412
665,000000	0,001495
664,000000	0,001532
663,000000	0,001873
662,000000	0,001562
661,000000	0,001633
660,000000	0,001704
659,000000	0,001559
658,000000	0,001518
657,000000	0,001572
656,000000	0,001946
655,000000	0,001884
654,000000	0,001859
653,000000	0,002071
652,000000	0,001810
651,000000	0,001803
650,000000	0,001960
649,000000	0,001918
648,000000	0,001716
647,000000	0,001674
646,000000	0,001857
645,000000	0,001932
644,000000	0,001609
643,000000	0,001792
642,000000	0,001776
641,000000	0,001834
640,000000	0,001543
639,000000	0,002009
638,000000	0,001934
637,000000	0,002031
636,000000	0,002156
635,000000	0,001952
634,000000	0,002230
633,000000	0,001894
632,000000	0,001873
631,000000	0,001985
630,000000	0,002024
629,000000	0,002040
628,000000	0,001953
627,000000	0,001986
626,000000	0,002104
625,000000	0,002116
624,000000	0,002169
623,000000	0,002053
622,000000	0,001995
621,000000	0,002224
620,000000	0,002385
619,000000	0,002236
618,000000	0,002208
617,000000	0,002216
616,000000	0,002157
615,000000	0,002274
614,000000	0,002066
613,000000	0,002070
612,000000	0,002029
611,000000	0,002254
610,000000	0,002591
609,000000	0,002404
608,000000	0,002174
607,000000	0,002509
606,000000	0,002463
605,000000	0,002532
604,000000	0,002124
603,000000	0,002386
602,000000	0,002512
601,000000	0,002473
600,000000	0,002462
599,000000	0,002727
598,000000	0,002536
597,000000	0,002411
596,000000	0,002444
595,000000	0,002644
594,000000	0,002232
593,000000	0,002299
592,000000	0,002828
591,000000	0,002669
590,000000	0,002223
589,000000	0,002550
588,000000	0,002724
587,000000	0,002512
586,000000	0,002021
585,000000	0,002383
584,000000	0,002552
583,000000	0,002354
582,000000	0,002075
581,000000	0,002558
580,000000	0,002799
579,000000	0,002579
578,000000	0,002426
577,000000	0,002728
576,000000	0,002658
575,000000	0,002838
574,000000	0,002803
573,000000	0,002884
572,000000	0,002742
571,000000	0,002700
570,000000	0,002896
569,000000	0,003296
568,000000	0,002890
567,000000	0,002839
566,000000	0,003064
565,000000	0,002840
564,000000	0,002684
563,000000	0,002861
562,000000	0,003160
561,000000	0,002715
560,000000	0,002724
559,000000	0,003202
558,000000	0,003132
557,000000	0,002794
556,000000	0,002814
555,000000	0,003058
554,000000	0,002935
553,000000	0,003075
552,000000	0,003219
551,000000	0,003261
550,000000	0,003218
549,000000	0,003005
548,000000	0,003302
547,000000	0,003174
546,000000	0,002915
545,000000	0,003225
544,000000	0,002932
543,000000	0,003337
542,000000	0,003097
541,000000	0,003084
540,000000	0,003440
539,000000	0,003169
538,000000	0,002914
537,000000	0,003108
536,000000	0,002991
535,000000	0,003606
534,000000	0,003558
533,000000	0,003253
532,000000	0,003401
531,000000	0,003566
530,000000	0,003259
529,000000	0,003381
528,000000	0,003643
527,000000	0,003468
526,000000	0,003392
525,000000	0,003527
524,000000	0,003847
523,000000	0,003303
522,000000	0,003558
521,000000	0,003509
520,000000	0,003857
519,000000	0,003513
518,000000	0,003306
517,000000	0,003611
516,000000	0,003645
515,000000	0,003548
514,000000	0,003481
513,000000	0,004134
512,000000	0,004057
511,000000	0,003752
510,000000	0,003774
509,000000	0,003995
508,000000	0,003649
507,000000	0,003699
506,000000	0,003964
505,000000	0,003948
504,000000	0,003965
503,000000	0,003714
502,000000	0,003884
501,000000	0,003909
500,000000	0,003850
499,000000	0,004020
498,000000	0,003931
497,000000	0,004098
496,000000	0,004061
495,000000	0,004113
494,000000	0,004727
493,000000	0,003927
492,000000	0,004095
491,000000	0,004134
490,000000	0,004240
489,000000	0,004354
488,000000	0,003804
487,000000	0,004473
486,000000	0,004227
485,000000	0,004066
484,000000	0,004325
483,000000	0,004778
482,000000	0,004487
481,000000	0,004196
480,000000	0,004654
479,000000	0,004722
478,000000	0,004489
477,000000	0,004567
476,000000	0,004757
475,000000	0,004515
474,000000	0,004573
473,000000	0,004612
472,000000	0,004973
471,000000	0,004905
470,000000	0,004782
469,000000	0,004655
468,000000	0,005058
467,000000	0,005011
466,000000	0,004798
465,000000	0,004961
464,000000	0,005364
463,000000	0,004782
462,000000	0,005174
461,000000	0,005073
460,000000	0,005147
459,000000	0,004993
458,000000	0,005327
457,000000	0,005250
456,000000	0,005074
455,000000	0,005477
454,000000	0,005637
453,000000	0,005308
452,000000	0,005627
451,000000	0,005584
450,000000	0,005554
449,000000	0,005372
448,000000	0,005821
447,000000	0,006066
446,000000	0,005572
445,000000	0,005587
444,000000	0,005517
443,000000	0,005873
442,000000	0,006092
441,000000	0,006147
440,000000	0,006339
439,000000	0,006409
438,000000	0,006279
437,000000	0,006613
436,000000	0,006684
435,000000	0,006120
434,000000	0,006141
433,000000	0,006636
432,000000	0,006704
431,000000	0,006549
430,000000	0,006668
429,000000	0,007201
428,000000	0,006524
427,000000	0,006230
426,000000	0,007679
425,000000	0,007168
424,000000	0,006965
423,000000	0,006926
422,000000	0,007628
421,000000	0,006870
420,000000	0,006783
419,000000	0,007005
418,000000	0,007082
417,000000	0,006981
416,000000	0,007115
415,000000	0,007218
414,000000	0,007228
413,000000	0,006938
412,000000	0,007316
411,000000	0,007288
410,000000	0,007765
409,000000	0,007332
408,000000	0,007790
407,000000	0,007949
406,000000	0,007731
405,000000	0,007808
404,000000	0,008018
403,000000	0,008298
402,000000	0,007975
401,000000	0,008266
400,000000	0,008568
399,000000	0,008972
398,000000	0,008483
397,000000	0,008800
396,000000	0,009051
395,000000	0,009065
394,000000	0,009329
393,000000	0,009246
392,000000	0,009649
391,000000	0,009484
390,000000	0,009647
