PE UV       SUBTECH     SPECTRUM    ASCII       PEDS        4.00        
   -1
22.Sample.Raw.asc
20/11/03
14:32:44.00
20/11/03
14:32:44.00
Analyst

390,000000
1
Lambda 25
501s11081509
PerkinElmer UV WinLab 6.0.3.0730 / Lambda25 1.27

480
2
1
0
0
Both on
1
1
1
None
0
0
0
0
 
 
0
0
0
0
0
 
 
 
0
 
0
326
0
 
0
 
 
 
0
0
0
 
0
 
 
 
0
 
 
0
0
0
0
0
 
 
 
 
0
0


#HDR
-1
-1
#GR
nm
A
1.0
0.0
700,000000
-1,000000
311
8
0,460346
0,051703
#DATA
700,000000	0,051780
699,000000	0,051703
698,000000	0,052170
697,000000	0,052149
696,000000	0,052625
695,000000	0,052756
694,000000	0,052797
693,000000	0,053308
692,000000	0,053138
691,000000	0,053553
690,000000	0,053509
689,000000	0,054416
688,000000	0,053860
687,000000	0,054093
686,000000	0,054711
685,000000	0,054194
684,000000	0,054736
683,000000	0,055195
682,000000	0,055423
681,000000	0,055442
680,000000	0,055622
679,000000	0,056251
678,000000	0,056491
677,000000	0,056409
676,000000	0,056869
675,000000	0,057084
674,000000	0,057177
673,000000	0,057284
672,000000	0,057652
671,000000	0,057944
670,000000	0,058076
669,000000	0,058975
668,000000	0,058758
667,000000	0,058970
666,000000	0,058727
665,000000	0,059522
664,000000	0,059561
663,000000	0,059728
662,000000	0,059943
661,000000	0,060279
660,000000	0,060648
659,000000	0,060689
658,000000	0,060937
657,000000	0,061357
656,000000	0,061565
655,000000	0,062019
654,000000	0,062245
653,000000	0,062829
652,000000	0,062316
651,000000	0,062731
650,000000	0,063393
649,000000	0,063586
648,000000	0,063652
647,000000	0,063905
646,000000	0,064663
645,000000	0,064637
644,000000	0,064787
643,000000	0,065372
642,000000	0,065450
641,000000	0,065734
640,000000	0,065848
639,000000	0,066578
638,000000	0,066918
637,000000	0,066923
636,000000	0,067443
635,000000	0,067612
634,000000	0,068203
633,000000	0,068129
632,000000	0,068484
631,000000	0,069102
630,000000	0,069021
629,000000	0,069458
628,000000	0,070029
627,000000	0,070622
626,000000	0,070231
625,000000	0,071071
624,000000	0,071522
623,000000	0,071689
622,000000	0,071988
621,000000	0,072334
620,000000	0,073315
619,000000	0,073348
618,000000	0,073458
617,000000	0,073977
616,000000	0,074392
615,000000	0,074863
614,000000	0,074832
613,000000	0,075488
612,000000	0,075697
611,000000	0,076163
610,000000	0,077070
609,000000	0,077209
608,000000	0,077557
607,000000	0,078000
606,000000	0,078490
605,000000	0,078846
604,000000	0,078974
603,000000	0,079776
602,000000	0,080133
601,000000	0,080653
600,000000	0,080768
599,000000	0,081678
598,000000	0,082213
597,000000	0,082180
596,000000	0,082758
595,000000	0,083315
594,000000	0,083383
593,000000	0,083779
592,000000	0,084908
591,000000	0,084852
590,000000	0,085352
589,000000	0,085892
588,000000	0,086447
587,000000	0,086766
586,000000	0,086743
585,000000	0,087367
584,000000	0,088324
583,000000	0,088616
582,000000	0,089109
581,000000	0,089586
580,000000	0,090568
579,000000	0,090314
578,000000	0,091057
577,000000	0,091535
576,000000	0,092127
575,000000	0,092703
574,000000	0,093136
573,000000	0,093945
572,000000	0,093840
571,000000	0,094829
570,000000	0,095207
569,000000	0,095422
568,000000	0,096069
567,000000	0,096132
566,000000	0,097288
565,000000	0,097539
564,000000	0,098211
563,000000	0,098748
562,000000	0,099460
561,000000	0,099357
560,000000	0,100023
559,000000	0,101887
558,000000	0,102254
557,000000	0,102225
556,000000	0,103312
555,000000	0,103626
554,000000	0,104279
553,000000	0,104683
552,000000	0,105837
551,000000	0,106024
550,000000	0,106732
549,000000	0,107366
548,000000	0,107880
547,000000	0,108096
546,000000	0,108319
545,000000	0,109634
544,000000	0,110122
543,000000	0,110519
542,000000	0,111097
541,000000	0,112027
540,000000	0,112460
539,000000	0,112723
538,000000	0,113124
537,000000	0,114191
536,000000	0,114124
535,000000	0,115151
534,000000	0,115892
533,000000	0,116387
532,000000	0,116894
531,000000	0,117771
530,000000	0,118476
529,000000	0,118864
528,000000	0,119491
527,000000	0,120056
526,000000	0,120920
525,000000	0,121693
524,000000	0,122325
523,000000	0,122870
522,000000	0,123481
521,000000	0,124506
520,000000	0,125137
519,000000	0,125751
518,000000	0,126148
517,000000	0,127288
516,000000	0,128275
515,000000	0,128909
514,000000	0,129495
513,000000	0,130530
512,000000	0,131732
511,000000	0,132374
510,000000	0,132728
509,000000	0,133794
508,000000	0,134635
507,000000	0,135701
506,000000	0,136875
505,000000	0,137598
504,000000	0,138800
503,000000	0,138988
502,000000	0,140545
501,000000	0,141437
500,000000	0,142329
499,000000	0,143348
498,000000	0,144089
497,000000	0,145799
496,000000	0,146680
495,000000	0,147893
494,000000	0,149243
493,000000	0,150164
492,000000	0,151400
491,000000	0,152626
490,000000	0,153907
489,000000	0,155382
488,000000	0,156338
487,000000	0,157339
486,000000	0,158838
485,000000	0,160003
484,000000	0,161350
483,000000	0,162940
482,000000	0,164236
481,000000	0,165080
480,000000	0,167100
479,000000	0,168217
478,000000	0,169873
477,000000	0,170970
476,000000	0,172478
475,000000	0,173317
474,000000	0,174466
473,000000	0,175582
472,000000	0,177260
471,000000	0,178864
470,000000	0,179554
469,000000	0,180591
468,000000	0,182270
467,000000	0,183366
466,000000	0,184692
465,000000	0,185949
464,000000	0,187500
463,000000	0,188350
462,000000	0,189527
461,000000	0,190853
460,000000	0,192224
459,000000	0,193715
458,000000	0,195154
457,000000	0,196898
456,000000	0,197924
455,000000	0,199627
454,000000	0,201363
453,000000	0,203111
452,000000	0,204851
451,000000	0,206492
450,000000	0,208523
449,000000	0,210731
448,000000	0,212570
447,000000	0,215037
446,000000	0,216569
445,000000	0,218932
444,000000	0,221779
443,000000	0,223778
442,000000	0,226715
441,000000	0,229334
440,000000	0,232317
439,000000	0,235422
438,000000	0,238254
437,000000	0,241387
436,000000	0,244479
435,000000	0,247734
434,000000	0,251107
433,000000	0,254875
432,000000	0,258692
431,000000	0,262477
430,000000	0,266365
429,000000	0,270335
428,000000	0,273206
427,000000	0,277098
426,000000	0,281939
425,000000	0,285411
424,000000	0,289350
423,000000	0,292434
422,000000	0,297378
421,000000	0,298444
420,000000	0,302044
419,000000	0,305810
418,000000	0,309543
417,000000	0,313254
416,000000	0,316841
415,000000	0,320859
414,000000	0,324703
413,000000	0,328127
412,000000	0,332095
411,000000	0,336131
410,000000	0,340474
409,000000	0,344457
408,000000	0,349084
407,000000	0,353527
406,000000	0,357391
405,000000	0,362736
404,000000	0,367355
403,000000	0,372620
402,000000	0,377781
401,000000	0,383385
400,000000	0,389367
399,000000	0,395618
398,000000	0,401611
397,000000	0,407425
396,000000	0,414285
395,000000	0,420893
394,000000	0,428280
393,000000	0,435909
392,000000	0,444132
391,000000	0,452320
390,000000	0,460346
