PE UV       SUBTECH     SPECTRUM    ASCII       PEDS        4.00        
   -1
23.Sample.Raw.asc
20/11/03
14:44:21.00
20/11/03
14:44:21.00
Analyst

390,000000
1
Lambda 25
501s11081509
PerkinElmer UV WinLab 6.0.3.0730 / Lambda25 1.27

480
2
1
0
0
Both on
1
1
1
None
0
0
0
0
 
 
0
0
0
0
0
 
 
 
0
 
0
326
0
 
0
 
 
 
0
0
0
 
0
 
 
 
0
 
 
0
0
0
0
0
 
 
 
 
0
0


#HDR
-1
-1
#GR
nm
A
1.0
0.0
700,000000
-1,000000
311
8
0,392534
0,002295
#DATA
700,000000	0,002744
699,000000	0,002412
698,000000	0,002371
697,000000	0,002295
696,000000	0,002636
695,000000	0,002530
694,000000	0,002462
693,000000	0,002861
692,000000	0,002817
691,000000	0,002624
690,000000	0,002480
689,000000	0,003169
688,000000	0,002617
687,000000	0,002640
686,000000	0,002804
685,000000	0,002757
684,000000	0,002762
683,000000	0,002922
682,000000	0,003025
681,000000	0,002716
680,000000	0,002900
679,000000	0,003153
678,000000	0,003318
677,000000	0,003246
676,000000	0,003158
675,000000	0,003325
674,000000	0,003413
673,000000	0,002966
672,000000	0,003149
671,000000	0,003411
670,000000	0,003690
669,000000	0,003578
668,000000	0,003297
667,000000	0,003397
666,000000	0,003204
665,000000	0,003624
664,000000	0,003403
663,000000	0,003691
662,000000	0,003525
661,000000	0,003598
660,000000	0,003639
659,000000	0,003653
658,000000	0,003588
657,000000	0,003629
656,000000	0,003905
655,000000	0,004269
654,000000	0,004047
653,000000	0,003993
652,000000	0,003967
651,000000	0,003755
650,000000	0,004176
649,000000	0,004301
648,000000	0,004312
647,000000	0,004230
646,000000	0,004387
645,000000	0,004505
644,000000	0,004408
643,000000	0,004504
642,000000	0,004497
641,000000	0,004523
640,000000	0,004357
639,000000	0,004798
638,000000	0,004883
637,000000	0,004840
636,000000	0,004952
635,000000	0,005092
634,000000	0,005224
633,000000	0,004967
632,000000	0,004964
631,000000	0,004944
630,000000	0,004932
629,000000	0,005039
628,000000	0,005087
627,000000	0,005426
626,000000	0,005206
625,000000	0,005456
624,000000	0,005660
623,000000	0,005561
622,000000	0,005468
621,000000	0,005745
620,000000	0,005923
619,000000	0,006022
618,000000	0,005932
617,000000	0,006122
616,000000	0,006024
615,000000	0,006061
614,000000	0,006064
613,000000	0,006362
612,000000	0,006103
611,000000	0,006271
610,000000	0,006722
609,000000	0,006540
608,000000	0,006561
607,000000	0,006882
606,000000	0,006856
605,000000	0,007096
604,000000	0,006796
603,000000	0,006924
602,000000	0,007093
601,000000	0,007146
600,000000	0,006988
599,000000	0,007634
598,000000	0,007445
597,000000	0,007561
596,000000	0,007387
595,000000	0,007930
594,000000	0,007553
593,000000	0,007670
592,000000	0,008092
591,000000	0,007975
590,000000	0,008069
589,000000	0,007958
588,000000	0,008287
587,000000	0,008373
586,000000	0,008009
585,000000	0,008255
584,000000	0,008834
583,000000	0,008904
582,000000	0,008543
581,000000	0,008656
580,000000	0,009339
579,000000	0,009211
578,000000	0,009041
577,000000	0,009524
576,000000	0,009468
575,000000	0,009798
574,000000	0,009950
573,000000	0,010418
572,000000	0,010057
571,000000	0,010303
570,000000	0,010370
569,000000	0,010402
568,000000	0,010332
567,000000	0,010381
566,000000	0,010491
565,000000	0,010903
564,000000	0,011283
563,000000	0,011282
562,000000	0,011579
561,000000	0,011295
560,000000	0,011452
559,000000	0,012093
558,000000	0,012276
557,000000	0,011915
556,000000	0,012302
555,000000	0,012344
554,000000	0,012654
553,000000	0,012928
552,000000	0,013033
551,000000	0,013286
550,000000	0,013608
549,000000	0,013799
548,000000	0,013744
547,000000	0,013890
546,000000	0,013994
545,000000	0,014463
544,000000	0,014267
543,000000	0,014551
542,000000	0,014920
541,000000	0,014962
540,000000	0,015496
539,000000	0,015355
538,000000	0,015732
537,000000	0,015789
536,000000	0,015857
535,000000	0,016413
534,000000	0,016627
533,000000	0,016739
532,000000	0,016912
531,000000	0,017240
530,000000	0,017399
529,000000	0,017400
528,000000	0,018054
527,000000	0,018285
526,000000	0,018389
525,000000	0,018679
524,000000	0,019204
523,000000	0,018960
522,000000	0,019263
521,000000	0,019877
520,000000	0,020036
519,000000	0,020392
518,000000	0,020168
517,000000	0,020977
516,000000	0,021231
515,000000	0,021176
514,000000	0,021160
513,000000	0,022025
512,000000	0,022625
511,000000	0,022419
510,000000	0,022660
509,000000	0,023102
508,000000	0,023288
507,000000	0,023550
506,000000	0,023846
505,000000	0,024347
504,000000	0,024913
503,000000	0,024366
502,000000	0,025444
501,000000	0,025584
500,000000	0,025661
499,000000	0,026159
498,000000	0,026343
497,000000	0,026982
496,000000	0,026962
495,000000	0,027684
494,000000	0,028311
493,000000	0,028394
492,000000	0,028745
491,000000	0,028898
490,000000	0,029799
489,000000	0,029816
488,000000	0,030143
487,000000	0,030628
486,000000	0,031154
485,000000	0,031354
484,000000	0,031842
483,000000	0,032736
482,000000	0,032743
481,000000	0,032656
480,000000	0,033784
479,000000	0,034359
478,000000	0,034711
477,000000	0,035093
476,000000	0,035507
475,000000	0,035960
474,000000	0,035995
473,000000	0,036641
472,000000	0,037292
471,000000	0,037949
470,000000	0,037959
469,000000	0,038704
468,000000	0,039839
467,000000	0,040082
466,000000	0,040565
465,000000	0,041211
464,000000	0,041819
463,000000	0,041927
462,000000	0,042797
461,000000	0,043486
460,000000	0,044251
459,000000	0,044698
458,000000	0,045567
457,000000	0,046435
456,000000	0,046508
455,000000	0,047485
454,000000	0,048313
453,000000	0,048785
452,000000	0,049846
451,000000	0,050930
450,000000	0,051664
449,000000	0,052019
448,000000	0,053145
447,000000	0,053938
446,000000	0,054698
445,000000	0,054675
444,000000	0,056161
443,000000	0,057254
442,000000	0,058705
441,000000	0,059419
440,000000	0,060908
439,000000	0,061748
438,000000	0,062391
437,000000	0,064119
436,000000	0,065082
435,000000	0,065518
434,000000	0,066941
433,000000	0,068955
432,000000	0,069824
431,000000	0,071098
430,000000	0,072690
429,000000	0,074062
428,000000	0,075087
427,000000	0,076393
426,000000	0,077884
425,000000	0,079049
424,000000	0,080505
423,000000	0,081912
422,000000	0,084164
421,000000	0,083435
420,000000	0,084903
419,000000	0,086521
418,000000	0,088206
417,000000	0,089892
416,000000	0,091413
415,000000	0,093194
414,000000	0,095295
413,000000	0,096464
412,000000	0,098583
411,000000	0,100772
410,000000	0,102873
409,000000	0,104963
408,000000	0,107881
407,000000	0,110440
406,000000	0,113034
405,000000	0,116369
404,000000	0,119869
403,000000	0,123746
402,000000	0,128108
401,000000	0,134059
400,000000	0,140898
399,000000	0,148768
398,000000	0,157132
397,000000	0,168255
396,000000	0,181971
395,000000	0,199985
394,000000	0,222603
393,000000	0,250735
392,000000	0,288829
391,000000	0,335539
390,000000	0,392534
