PE UV       SUBTECH     SPECTRUM    ASCII       PEDS        4.00        
   -1
28.Sample.Raw.asc
20/11/03
14:34:18.00
20/11/03
14:34:18.00
Analyst

390,000000
1
Lambda 25
501s11081509
PerkinElmer UV WinLab 6.0.3.0730 / Lambda25 1.27

480
2
1
0
0
Both on
1
1
1
None
0
0
0
0
 
 
0
0
0
0
0
 
 
 
0
 
0
326
0
 
0
 
 
 
0
0
0
 
0
 
 
 
0
 
 
0
0
0
0
0
 
 
 
 
0
0


#HDR
-1
-1
#GR
nm
A
1.0
0.0
700,000000
-1,000000
311
8
0,036599
0,000928
#DATA
700,000000	0,001411
699,000000	0,001149
698,000000	0,001235
697,000000	0,001113
696,000000	0,001269
695,000000	0,001200
694,000000	0,001209
693,000000	0,001480
692,000000	0,001250
691,000000	0,001283
690,000000	0,001432
689,000000	0,001559
688,000000	0,001255
687,000000	0,001289
686,000000	0,001586
685,000000	0,001170
684,000000	0,001174
683,000000	0,001403
682,000000	0,001456
681,000000	0,000928
680,000000	0,001139
679,000000	0,001028
678,000000	0,001507
677,000000	0,001128
676,000000	0,001446
675,000000	0,001599
674,000000	0,001504
673,000000	0,001402
672,000000	0,001129
671,000000	0,001186
670,000000	0,001477
669,000000	0,001568
668,000000	0,001279
667,000000	0,001291
666,000000	0,001325
665,000000	0,001321
664,000000	0,001143
663,000000	0,001321
662,000000	0,001363
661,000000	0,001185
660,000000	0,001160
659,000000	0,001501
658,000000	0,001302
657,000000	0,001402
656,000000	0,001485
655,000000	0,001663
654,000000	0,001767
653,000000	0,001414
652,000000	0,001428
651,000000	0,001387
650,000000	0,001611
649,000000	0,001561
648,000000	0,001341
647,000000	0,001612
646,000000	0,001532
645,000000	0,001674
644,000000	0,001459
643,000000	0,001829
642,000000	0,001542
641,000000	0,001351
640,000000	0,001452
639,000000	0,001867
638,000000	0,001805
637,000000	0,001552
636,000000	0,001835
635,000000	0,001860
634,000000	0,001663
633,000000	0,001681
632,000000	0,001590
631,000000	0,001997
630,000000	0,001453
629,000000	0,001773
628,000000	0,001912
627,000000	0,002044
626,000000	0,001829
625,000000	0,002024
624,000000	0,001998
623,000000	0,002082
622,000000	0,002070
621,000000	0,002094
620,000000	0,002219
619,000000	0,002136
618,000000	0,002024
617,000000	0,002170
616,000000	0,002220
615,000000	0,002282
614,000000	0,002012
613,000000	0,002045
612,000000	0,002025
611,000000	0,002012
610,000000	0,002495
609,000000	0,002149
608,000000	0,002058
607,000000	0,002434
606,000000	0,002229
605,000000	0,002524
604,000000	0,002203
603,000000	0,002349
602,000000	0,002554
601,000000	0,002456
600,000000	0,002299
599,000000	0,002552
598,000000	0,002624
597,000000	0,002261
596,000000	0,002636
595,000000	0,002510
594,000000	0,002165
593,000000	0,002450
592,000000	0,002711
591,000000	0,002623
590,000000	0,002202
589,000000	0,002659
588,000000	0,002523
587,000000	0,002625
586,000000	0,002164
585,000000	0,002232
584,000000	0,002615
583,000000	0,002333
582,000000	0,002513
581,000000	0,002571
580,000000	0,002605
579,000000	0,002617
578,000000	0,002599
577,000000	0,002880
576,000000	0,002506
575,000000	0,002914
574,000000	0,002773
573,000000	0,002990
572,000000	0,002746
571,000000	0,002870
570,000000	0,003053
569,000000	0,002883
568,000000	0,002596
567,000000	0,002746
566,000000	0,002779
565,000000	0,002916
564,000000	0,003025
563,000000	0,003292
562,000000	0,003331
561,000000	0,002724
560,000000	0,002959
559,000000	0,003615
558,000000	0,003563
557,000000	0,003173
556,000000	0,003368
555,000000	0,003424
554,000000	0,003246
553,000000	0,003702
552,000000	0,004114
551,000000	0,003816
550,000000	0,003871
549,000000	0,003999
548,000000	0,004236
547,000000	0,003822
546,000000	0,003597
545,000000	0,004111
544,000000	0,004104
543,000000	0,004015
542,000000	0,004210
541,000000	0,004278
540,000000	0,004480
539,000000	0,004274
538,000000	0,004359
537,000000	0,004280
536,000000	0,004189
535,000000	0,004369
534,000000	0,004914
533,000000	0,004784
532,000000	0,004816
531,000000	0,004909
530,000000	0,005234
529,000000	0,005161
528,000000	0,005145
527,000000	0,005482
526,000000	0,005427
525,000000	0,005648
524,000000	0,005699
523,000000	0,005535
522,000000	0,005817
521,000000	0,005672
520,000000	0,006424
519,000000	0,006095
518,000000	0,006102
517,000000	0,006219
516,000000	0,006481
515,000000	0,006517
514,000000	0,006402
513,000000	0,007351
512,000000	0,007311
511,000000	0,007086
510,000000	0,006870
509,000000	0,007445
508,000000	0,007509
507,000000	0,007420
506,000000	0,007905
505,000000	0,007842
504,000000	0,008284
503,000000	0,007914
502,000000	0,008288
501,000000	0,008656
500,000000	0,008571
499,000000	0,008639
498,000000	0,008838
497,000000	0,009161
496,000000	0,009284
495,000000	0,009504
494,000000	0,009926
493,000000	0,009748
492,000000	0,009925
491,000000	0,010080
490,000000	0,010792
489,000000	0,010749
488,000000	0,010806
487,000000	0,011011
486,000000	0,011111
485,000000	0,011327
484,000000	0,011258
483,000000	0,012115
482,000000	0,012514
481,000000	0,012052
480,000000	0,012468
479,000000	0,012766
478,000000	0,013432
477,000000	0,013057
476,000000	0,013737
475,000000	0,013904
474,000000	0,013748
473,000000	0,014052
472,000000	0,014446
471,000000	0,014611
470,000000	0,014524
469,000000	0,014994
468,000000	0,015483
467,000000	0,015641
466,000000	0,015692
465,000000	0,015997
464,000000	0,016291
463,000000	0,016197
462,000000	0,016762
461,000000	0,017021
460,000000	0,017277
459,000000	0,017400
458,000000	0,017695
457,000000	0,018219
456,000000	0,018180
455,000000	0,018620
454,000000	0,018867
453,000000	0,018719
452,000000	0,019368
451,000000	0,019437
450,000000	0,019588
449,000000	0,019694
448,000000	0,020374
447,000000	0,020788
446,000000	0,020648
445,000000	0,020624
444,000000	0,020919
443,000000	0,021158
442,000000	0,021913
441,000000	0,021927
440,000000	0,022249
439,000000	0,022408
438,000000	0,022561
437,000000	0,023045
436,000000	0,023345
435,000000	0,023166
434,000000	0,023301
433,000000	0,024243
432,000000	0,024166
431,000000	0,024207
430,000000	0,024895
429,000000	0,024723
428,000000	0,024726
427,000000	0,025210
426,000000	0,025954
425,000000	0,025890
424,000000	0,026432
423,000000	0,026114
422,000000	0,026718
421,000000	0,026705
420,000000	0,026730
419,000000	0,027235
418,000000	0,027468
417,000000	0,027682
416,000000	0,028032
415,000000	0,028310
414,000000	0,028666
413,000000	0,028385
412,000000	0,029044
411,000000	0,029111
410,000000	0,029753
409,000000	0,029893
408,000000	0,029992
407,000000	0,030566
406,000000	0,030473
405,000000	0,031072
404,000000	0,031061
403,000000	0,031512
402,000000	0,031718
401,000000	0,031978
400,000000	0,032702
399,000000	0,033105
398,000000	0,032952
397,000000	0,033401
396,000000	0,033756
395,000000	0,034522
394,000000	0,034590
393,000000	0,035020
392,000000	0,035568
391,000000	0,036119
390,000000	0,036599
