PE UV       SUBTECH     SPECTRUM    ASCII       PEDS        4.00        
   -1
29.Sample.Raw.asc
20/11/03
14:48:28.00
20/11/03
14:48:28.00
Analyst

390,000000
1
Lambda 25
501s11081509
PerkinElmer UV WinLab 6.0.3.0730 / Lambda25 1.27

480
2
1
0
0
Both on
1
1
1
None
0
0
0
0
 
 
0
0
0
0
0
 
 
 
0
 
0
326
0
 
0
 
 
 
0
0
0
 
0
 
 
 
0
 
 
0
0
0
0
0
 
 
 
 
0
0


#HDR
-1
-1
#GR
nm
A
1.0
0.0
700,000000
-1,000000
311
8
0,008541
0,000111
#DATA
700,000000	0,000639
699,000000	0,000369
698,000000	0,000316
697,000000	0,000185
696,000000	0,000464
695,000000	0,000456
694,000000	0,000222
693,000000	0,000448
692,000000	0,000481
691,000000	0,000308
690,000000	0,000238
689,000000	0,000744
688,000000	0,000436
687,000000	0,000111
686,000000	0,000494
685,000000	0,000346
684,000000	0,000111
683,000000	0,000466
682,000000	0,000540
681,000000	0,000305
680,000000	0,000272
679,000000	0,000384
678,000000	0,000829
677,000000	0,000442
676,000000	0,000375
675,000000	0,000508
674,000000	0,000582
673,000000	0,000368
672,000000	0,000397
671,000000	0,000516
670,000000	0,000483
669,000000	0,000591
668,000000	0,000169
667,000000	0,000302
666,000000	0,000451
665,000000	0,000380
664,000000	0,000447
663,000000	0,000571
662,000000	0,000385
661,000000	0,000335
660,000000	0,000294
659,000000	0,000393
658,000000	0,000402
657,000000	0,000207
656,000000	0,000563
655,000000	0,000626
654,000000	0,000563
653,000000	0,000452
652,000000	0,000257
651,000000	0,000444
650,000000	0,000356
649,000000	0,000435
648,000000	0,000572
647,000000	0,000477
646,000000	0,000610
645,000000	0,000809
644,000000	0,000407
643,000000	0,000320
642,000000	0,000266
641,000000	0,000341
640,000000	0,000411
639,000000	0,000693
638,000000	0,000852
637,000000	0,000707
636,000000	0,000744
635,000000	0,000698
634,000000	0,000748
633,000000	0,000623
632,000000	0,000270
631,000000	0,000790
630,000000	0,000345
629,000000	0,000682
628,000000	0,000507
627,000000	0,000503
626,000000	0,000462
625,000000	0,000565
624,000000	0,000648
623,000000	0,000678
622,000000	0,000786
621,000000	0,000948
620,000000	0,000740
619,000000	0,000648
618,000000	0,000599
617,000000	0,000636
616,000000	0,000561
615,000000	0,000740
614,000000	0,000699
613,000000	0,000432
612,000000	0,000487
611,000000	0,000640
610,000000	0,001027
609,000000	0,000557
608,000000	0,000794
607,000000	0,000690
606,000000	0,000753
605,000000	0,000981
604,000000	0,000773
603,000000	0,001040
602,000000	0,000648
601,000000	0,000877
600,000000	0,000744
599,000000	0,000885
598,000000	0,000877
597,000000	0,000894
596,000000	0,001060
595,000000	0,001056
594,000000	0,000752
593,000000	0,000915
592,000000	0,001089
591,000000	0,001007
590,000000	0,000591
589,000000	0,000971
588,000000	0,001109
587,000000	0,000838
586,000000	0,000551
585,000000	0,000677
584,000000	0,000949
583,000000	0,000741
582,000000	0,000671
581,000000	0,000953
580,000000	0,001320
579,000000	0,000946
578,000000	0,001120
577,000000	0,001113
576,000000	0,001131
575,000000	0,001013
574,000000	0,001268
573,000000	0,001255
572,000000	0,000986
571,000000	0,001333
570,000000	0,001482
569,000000	0,001384
568,000000	0,001037
567,000000	0,001063
566,000000	0,001283
565,000000	0,001437
564,000000	0,001085
563,000000	0,001335
562,000000	0,001441
561,000000	0,000958
560,000000	0,001116
559,000000	0,001602
558,000000	0,001351
557,000000	0,001187
556,000000	0,001301
555,000000	0,001250
554,000000	0,001234
553,000000	0,001276
552,000000	0,001572
551,000000	0,001577
550,000000	0,001661
549,000000	0,001284
548,000000	0,001711
547,000000	0,001724
546,000000	0,001271
545,000000	0,001571
544,000000	0,001410
543,000000	0,001389
542,000000	0,001156
541,000000	0,001656
540,000000	0,001863
539,000000	0,001461
538,000000	0,001236
537,000000	0,001363
536,000000	0,001402
535,000000	0,001451
534,000000	0,001760
533,000000	0,001431
532,000000	0,001862
531,000000	0,001790
530,000000	0,001680
529,000000	0,001566
528,000000	0,001909
527,000000	0,001769
526,000000	0,001693
525,000000	0,001858
524,000000	0,001959
523,000000	0,001562
522,000000	0,001913
521,000000	0,001772
520,000000	0,001878
519,000000	0,001802
518,000000	0,001820
517,000000	0,001903
516,000000	0,001929
515,000000	0,001832
514,000000	0,001798
513,000000	0,002304
512,000000	0,002299
511,000000	0,001796
510,000000	0,001936
509,000000	0,002175
508,000000	0,001986
507,000000	0,002137
506,000000	0,002327
505,000000	0,002111
504,000000	0,002194
503,000000	0,002064
502,000000	0,002422
501,000000	0,002456
500,000000	0,002202
499,000000	0,002388
498,000000	0,002151
497,000000	0,002560
496,000000	0,002230
495,000000	0,002630
494,000000	0,002934
493,000000	0,002318
492,000000	0,002558
491,000000	0,002719
490,000000	0,002788
489,000000	0,002830
488,000000	0,002535
487,000000	0,002796
486,000000	0,002746
485,000000	0,002611
484,000000	0,002619
483,000000	0,003338
482,000000	0,002939
481,000000	0,002779
480,000000	0,003245
479,000000	0,003144
478,000000	0,003030
477,000000	0,002904
476,000000	0,003199
475,000000	0,003079
474,000000	0,003315
473,000000	0,003198
472,000000	0,003401
471,000000	0,003274
470,000000	0,003171
469,000000	0,003378
468,000000	0,003780
467,000000	0,003550
466,000000	0,003824
465,000000	0,003677
464,000000	0,003938
463,000000	0,003624
462,000000	0,003518
461,000000	0,003838
460,000000	0,004056
459,000000	0,003948
458,000000	0,004000
457,000000	0,004353
456,000000	0,003997
455,000000	0,004093
454,000000	0,004376
453,000000	0,003952
452,000000	0,003840
451,000000	0,004566
450,000000	0,004502
449,000000	0,004468
448,000000	0,004682
447,000000	0,004810
446,000000	0,004435
445,000000	0,004179
444,000000	0,004337
443,000000	0,004704
442,000000	0,005163
441,000000	0,004984
440,000000	0,005504
439,000000	0,005129
438,000000	0,005032
437,000000	0,005093
436,000000	0,005281
435,000000	0,005303
434,000000	0,004900
433,000000	0,005926
432,000000	0,005528
431,000000	0,005732
430,000000	0,005824
429,000000	0,005725
428,000000	0,005684
427,000000	0,005286
426,000000	0,005810
425,000000	0,006388
424,000000	0,006449
423,000000	0,006332
422,000000	0,006796
421,000000	0,005855
420,000000	0,005794
419,000000	0,005934
418,000000	0,006137
417,000000	0,005915
416,000000	0,006308
415,000000	0,006494
414,000000	0,006356
413,000000	0,006067
412,000000	0,006497
411,000000	0,006607
410,000000	0,006599
409,000000	0,006440
408,000000	0,006823
407,000000	0,006960
406,000000	0,006730
405,000000	0,007240
404,000000	0,007125
403,000000	0,007323
402,000000	0,007277
401,000000	0,007346
400,000000	0,007883
399,000000	0,007674
398,000000	0,007797
397,000000	0,007868
396,000000	0,008127
395,000000	0,008041
394,000000	0,008130
393,000000	0,008256
392,000000	0,008541
391,000000	0,008368
390,000000	0,008531
