PE UV       SUBTECH     SPECTRUM    ASCII       PEDS        4.00        
   -1
31.Sample.Raw.asc
20/11/03
14:50:26.00
20/11/03
14:50:26.00
Analyst

390,000000
1
Lambda 25
501s11081509
PerkinElmer UV WinLab 6.0.3.0730 / Lambda25 1.27

480
2
1
0
0
Both on
1
1
1
None
0
0
0
0
 
 
0
0
0
0
0
 
 
 
0
 
0
326
0
 
0
 
 
 
0
0
0
 
0
 
 
 
0
 
 
0
0
0
0
0
 
 
 
 
0
0


#HDR
-1
-1
#GR
nm
A
1.0
0.0
700,000000
-1,000000
311
8
0,048110
0,000079
#DATA
700,000000	0,000365
699,000000	0,000271
698,000000	0,000513
697,000000	0,000164
696,000000	0,000382
695,000000	0,000390
694,000000	0,000135
693,000000	0,000394
692,000000	0,000226
691,000000	0,000361
690,000000	0,000255
689,000000	0,000522
688,000000	0,000296
687,000000	0,000288
686,000000	0,000535
685,000000	0,000235
684,000000	0,000202
683,000000	0,000288
682,000000	0,000478
681,000000	0,000206
680,000000	0,000239
679,000000	0,000433
678,000000	0,000614
677,000000	0,000384
676,000000	0,000697
675,000000	0,000512
674,000000	0,000396
673,000000	0,000095
672,000000	0,000562
671,000000	0,000479
670,000000	0,000351
669,000000	0,000487
668,000000	0,000794
667,000000	0,000413
666,000000	0,000120
665,000000	0,000393
664,000000	0,000505
663,000000	0,000525
662,000000	0,000174
661,000000	0,000460
660,000000	0,000609
659,000000	0,000427
658,000000	0,000298
657,000000	0,000364
656,000000	0,000572
655,000000	0,000530
654,000000	0,000584
653,000000	0,000713
652,000000	0,000323
651,000000	0,000124
650,000000	0,000713
649,000000	0,000767
648,000000	0,000481
647,000000	0,000278
646,000000	0,000763
645,000000	0,000772
644,000000	0,000295
643,000000	0,000353
642,000000	0,000760
641,000000	0,000449
640,000000	0,000195
639,000000	0,000718
638,000000	0,000652
637,000000	0,000424
636,000000	0,000702
635,000000	0,000598
634,000000	0,000752
633,000000	0,000565
632,000000	0,000079
631,000000	0,000781
630,000000	0,000478
629,000000	0,000565
628,000000	0,000545
627,000000	0,000848
626,000000	0,000641
625,000000	0,000470
624,000000	0,000619
623,000000	0,000786
622,000000	0,000636
621,000000	0,000748
620,000000	0,000773
619,000000	0,000861
618,000000	0,000453
617,000000	0,000724
616,000000	0,000832
615,000000	0,000961
614,000000	0,000482
613,000000	0,000499
612,000000	0,000770
611,000000	0,000782
610,000000	0,001098
609,000000	0,000807
608,000000	0,000936
607,000000	0,001036
606,000000	0,000557
605,000000	0,001060
604,000000	0,001007
603,000000	0,000752
602,000000	0,000948
601,000000	0,000889
600,000000	0,000919
599,000000	0,001126
598,000000	0,001093
597,000000	0,001014
596,000000	0,001014
595,000000	0,001151
594,000000	0,000869
593,000000	0,000919
592,000000	0,001439
591,000000	0,000907
590,000000	0,000874
589,000000	0,001046
588,000000	0,001255
587,000000	0,001198
586,000000	0,000643
585,000000	0,000568
584,000000	0,001092
583,000000	0,001115
582,000000	0,000923
581,000000	0,001201
580,000000	0,001383
579,000000	0,001406
578,000000	0,000990
577,000000	0,001341
576,000000	0,001219
575,000000	0,001157
574,000000	0,001492
573,000000	0,001734
572,000000	0,001498
571,000000	0,001396
570,000000	0,001604
569,000000	0,001753
568,000000	0,001580
567,000000	0,001318
566,000000	0,001542
565,000000	0,001819
564,000000	0,001454
563,000000	0,001649
562,000000	0,001802
561,000000	0,001434
560,000000	0,001519
559,000000	0,001721
558,000000	0,001941
557,000000	0,001569
556,000000	0,001700
555,000000	0,001649
554,000000	0,001777
553,000000	0,001942
552,000000	0,001912
551,000000	0,002120
550,000000	0,002320
549,000000	0,001937
548,000000	0,002221
547,000000	0,002034
546,000000	0,001801
545,000000	0,002166
544,000000	0,001933
543,000000	0,002205
542,000000	0,002361
541,000000	0,002259
540,000000	0,002572
539,000000	0,002323
538,000000	0,002421
537,000000	0,002368
536,000000	0,002293
535,000000	0,002521
534,000000	0,002618
533,000000	0,002407
532,000000	0,002661
531,000000	0,002945
530,000000	0,002677
529,000000	0,002607
528,000000	0,002648
527,000000	0,003051
526,000000	0,002843
525,000000	0,003064
524,000000	0,003255
523,000000	0,003065
522,000000	0,002907
521,000000	0,003347
520,000000	0,003474
519,000000	0,003385
518,000000	0,002970
517,000000	0,003339
516,000000	0,003407
515,000000	0,003314
514,000000	0,003281
513,000000	0,003836
512,000000	0,003921
511,000000	0,003820
510,000000	0,003366
509,000000	0,003987
508,000000	0,003768
507,000000	0,003954
506,000000	0,004181
505,000000	0,004305
504,000000	0,004594
503,000000	0,003816
502,000000	0,004339
501,000000	0,004445
500,000000	0,004368
499,000000	0,004470
498,000000	0,004348
497,000000	0,004930
496,000000	0,004927
495,000000	0,004741
494,000000	0,005279
493,000000	0,004853
492,000000	0,005089
491,000000	0,005068
490,000000	0,005497
489,000000	0,005505
488,000000	0,005323
487,000000	0,005330
486,000000	0,005518
485,000000	0,005607
484,000000	0,005573
483,000000	0,006358
482,000000	0,006123
481,000000	0,006108
480,000000	0,006506
479,000000	0,006476
478,000000	0,006745
477,000000	0,006671
476,000000	0,006712
475,000000	0,006892
474,000000	0,007039
473,000000	0,007101
472,000000	0,007459
471,000000	0,007447
470,000000	0,007782
469,000000	0,007817
468,000000	0,008000
467,000000	0,008230
466,000000	0,008356
465,000000	0,008641
464,000000	0,008668
463,000000	0,008657
462,000000	0,009255
461,000000	0,009314
460,000000	0,009399
459,000000	0,009682
458,000000	0,009730
457,000000	0,010192
456,000000	0,010268
455,000000	0,010704
454,000000	0,011210
453,000000	0,010889
452,000000	0,011346
451,000000	0,011454
450,000000	0,011510
449,000000	0,011610
448,000000	0,012061
447,000000	0,012667
446,000000	0,012776
445,000000	0,012389
444,000000	0,013043
443,000000	0,012989
442,000000	0,013920
441,000000	0,013704
440,000000	0,014562
439,000000	0,014581
438,000000	0,014742
437,000000	0,015265
436,000000	0,015402
435,000000	0,015709
434,000000	0,015555
433,000000	0,016241
432,000000	0,016675
431,000000	0,016988
430,000000	0,017157
429,000000	0,018023
428,000000	0,018210
427,000000	0,017978
426,000000	0,018955
425,000000	0,019416
424,000000	0,019860
423,000000	0,019668
422,000000	0,020862
421,000000	0,020040
420,000000	0,020307
419,000000	0,020767
418,000000	0,021419
417,000000	0,021770
416,000000	0,022121
415,000000	0,022756
414,000000	0,023231
413,000000	0,023738
412,000000	0,024135
411,000000	0,024595
410,000000	0,025465
409,000000	0,026063
408,000000	0,026806
407,000000	0,027535
406,000000	0,028014
405,000000	0,028917
404,000000	0,029653
403,000000	0,030986
402,000000	0,031521
401,000000	0,032951
400,000000	0,034067
399,000000	0,035265
398,000000	0,036341
397,000000	0,037812
396,000000	0,038929
395,000000	0,040260
394,000000	0,041726
393,000000	0,043488
392,000000	0,045007
391,000000	0,046411
390,000000	0,048110
