PE UV       SUBTECH     SPECTRUM    ASCII       PEDS        4.00        
   -1
33.Sample.Raw.asc
20/11/03
14:52:19.00
20/11/03
14:52:19.00
Analyst

390,000000
1
Lambda 25
501s11081509
PerkinElmer UV WinLab 6.0.3.0730 / Lambda25 1.27

480
2
1
0
0
Both on
1
1
1
None
0
0
0
0
 
 
0
0
0
0
0
 
 
 
0
 
0
326
0
 
0
 
 
 
0
0
0
 
0
 
 
 
0
 
 
0
0
0
0
0
 
 
 
 
0
0


#HDR
-1
-1
#GR
nm
A
1.0
0.0
700,000000
-1,000000
311
8
0,163143
0,000000
#DATA
700,000000	0,000258
699,000000	0,000041
698,000000	0,000184
697,000000	0,000004
696,000000	0,000390
695,000000	0,000222
694,000000	0,000016
693,000000	0,000250
692,000000	0,000238
691,000000	0,000353
690,000000	0,000000
689,000000	0,000719
688,000000	0,000415
687,000000	0,000107
686,000000	0,000407
685,000000	0,000053
684,000000	0,000321
683,000000	0,000260
682,000000	0,000573
681,000000	0,000425
680,000000	0,000107
679,000000	0,000454
678,000000	0,000569
677,000000	0,000487
676,000000	0,000755
675,000000	0,000454
674,000000	0,000793
673,000000	0,000256
672,000000	0,000578
671,000000	0,000657
670,000000	0,000698
669,000000	0,001017
668,000000	0,000550
667,000000	0,000724
666,000000	0,000422
665,000000	0,000525
664,000000	0,000616
663,000000	0,000708
662,000000	0,000795
661,000000	0,000402
660,000000	0,000725
659,000000	0,000596
658,000000	0,000721
657,000000	0,000547
656,000000	0,000709
655,000000	0,000937
654,000000	0,000953
653,000000	0,001136
652,000000	0,000755
651,000000	0,000809
650,000000	0,000904
649,000000	0,000875
648,000000	0,000859
647,000000	0,000826
646,000000	0,001071
645,000000	0,001121
644,000000	0,000827
643,000000	0,000880
642,000000	0,000860
641,000000	0,000893
640,000000	0,000798
639,000000	0,001163
638,000000	0,000985
637,000000	0,000827
636,000000	0,001102
635,000000	0,000973
634,000000	0,001122
633,000000	0,000823
632,000000	0,001069
631,000000	0,001164
630,000000	0,000778
629,000000	0,001123
628,000000	0,000907
627,000000	0,001223
626,000000	0,000903
625,000000	0,001294
624,000000	0,001189
623,000000	0,001165
622,000000	0,000961
621,000000	0,001281
620,000000	0,001606
619,000000	0,001260
618,000000	0,001336
617,000000	0,001315
616,000000	0,001448
615,000000	0,001302
614,000000	0,001386
613,000000	0,001628
612,000000	0,001474
611,000000	0,001678
610,000000	0,001710
609,000000	0,001870
608,000000	0,001753
607,000000	0,001690
606,000000	0,002037
605,000000	0,002023
604,000000	0,001924
603,000000	0,002194
602,000000	0,002424
601,000000	0,002486
600,000000	0,002270
599,000000	0,002915
598,000000	0,002904
597,000000	0,002942
596,000000	0,002895
595,000000	0,003275
594,000000	0,003180
593,000000	0,003533
592,000000	0,003937
591,000000	0,003984
590,000000	0,004146
589,000000	0,004215
588,000000	0,004185
587,000000	0,005089
586,000000	0,004815
585,000000	0,005104
584,000000	0,005423
583,000000	0,005856
582,000000	0,005991
581,000000	0,006279
580,000000	0,007162
579,000000	0,007425
578,000000	0,007797
577,000000	0,008158
576,000000	0,008595
575,000000	0,009483
574,000000	0,009415
573,000000	0,010059
572,000000	0,010416
571,000000	0,011065
570,000000	0,011336
569,000000	0,011754
568,000000	0,012289
567,000000	0,012579
566,000000	0,013346
565,000000	0,013535
564,000000	0,014125
563,000000	0,014644
562,000000	0,015347
561,000000	0,015401
560,000000	0,016312
559,000000	0,017517
558,000000	0,018018
557,000000	0,018459
556,000000	0,019459
555,000000	0,019637
554,000000	0,020469
553,000000	0,021354
552,000000	0,021867
551,000000	0,022650
550,000000	0,023373
549,000000	0,024483
548,000000	0,024998
547,000000	0,025666
546,000000	0,026091
545,000000	0,027196
544,000000	0,027971
543,000000	0,028932
542,000000	0,029873
541,000000	0,031003
540,000000	0,032037
539,000000	0,032675
538,000000	0,033387
537,000000	0,034742
536,000000	0,035428
535,000000	0,036847
534,000000	0,038166
533,000000	0,039058
532,000000	0,039972
531,000000	0,041632
530,000000	0,042905
529,000000	0,043614
528,000000	0,045284
527,000000	0,046495
526,000000	0,047710
525,000000	0,048995
524,000000	0,050230
523,000000	0,051663
522,000000	0,052668
521,000000	0,054284
520,000000	0,055336
519,000000	0,056716
518,000000	0,057817
517,000000	0,059014
516,000000	0,060516
515,000000	0,061770
514,000000	0,063028
513,000000	0,065060
512,000000	0,066216
511,000000	0,067276
510,000000	0,068191
509,000000	0,069733
508,000000	0,070737
507,000000	0,072541
506,000000	0,073709
505,000000	0,074747
504,000000	0,076560
503,000000	0,077556
502,000000	0,078889
501,000000	0,080129
500,000000	0,081681
499,000000	0,082786
498,000000	0,084170
497,000000	0,085942
496,000000	0,087127
495,000000	0,088912
494,000000	0,090181
493,000000	0,091677
492,000000	0,092927
491,000000	0,094326
490,000000	0,095933
489,000000	0,096826
488,000000	0,098382
487,000000	0,099828
486,000000	0,101331
485,000000	0,102626
484,000000	0,103858
483,000000	0,105514
482,000000	0,106462
481,000000	0,107579
480,000000	0,108755
479,000000	0,109749
478,000000	0,110945
477,000000	0,111887
476,000000	0,113178
475,000000	0,113862
474,000000	0,114830
473,000000	0,115680
472,000000	0,116546
471,000000	0,117107
470,000000	0,117834
469,000000	0,118913
468,000000	0,119818
467,000000	0,120479
466,000000	0,121214
465,000000	0,122134
464,000000	0,122722
463,000000	0,122986
462,000000	0,123986
461,000000	0,124506
460,000000	0,125134
459,000000	0,125339
458,000000	0,126130
457,000000	0,127045
456,000000	0,126739
455,000000	0,127317
454,000000	0,127885
453,000000	0,128123
452,000000	0,128144
451,000000	0,128811
450,000000	0,129173
449,000000	0,129066
448,000000	0,129324
447,000000	0,129772
446,000000	0,129153
445,000000	0,129078
444,000000	0,129725
443,000000	0,129488
442,000000	0,130205
441,000000	0,129970
440,000000	0,130102
439,000000	0,130682
438,000000	0,129940
437,000000	0,130074
436,000000	0,129919
435,000000	0,129826
434,000000	0,130013
433,000000	0,130652
432,000000	0,130380
431,000000	0,130560
430,000000	0,130532
429,000000	0,130891
428,000000	0,130907
427,000000	0,130363
426,000000	0,130962
425,000000	0,131588
424,000000	0,131639
423,000000	0,131474
422,000000	0,132771
421,000000	0,129759
420,000000	0,129888
419,000000	0,130125
418,000000	0,130232
417,000000	0,130403
416,000000	0,130557
415,000000	0,130761
414,000000	0,130907
413,000000	0,130895
412,000000	0,131057
411,000000	0,131466
410,000000	0,132126
409,000000	0,132688
408,000000	0,133186
407,000000	0,133945
406,000000	0,134459
405,000000	0,135822
404,000000	0,136501
403,000000	0,138128
402,000000	0,139365
401,000000	0,141442
400,000000	0,143319
399,000000	0,145078
398,000000	0,147243
397,000000	0,149092
396,000000	0,151251
395,000000	0,152929
394,000000	0,155613
393,000000	0,157566
392,000000	0,159556
391,000000	0,161192
390,000000	0,163143
