PE UV       SUBTECH     SPECTRUM    ASCII       PEDS        4.00        
   -1
38.Sample.Raw.asc
20/11/03
14:56:10.00
20/11/03
14:56:10.00
Analyst

390,000000
1
Lambda 25
501s11081509
PerkinElmer UV WinLab 6.0.3.0730 / Lambda25 1.27

480
2
1
0
0
Both on
1
1
1
None
0
0
0
0
 
 
0
0
0
0
0
 
 
 
0
 
0
326
0
 
0
 
 
 
0
0
0
 
0
 
 
 
0
 
 
0
0
0
0
0
 
 
 
 
0
0


#HDR
-1
-1
#GR
nm
A
1.0
0.0
700,000000
-1,000000
311
8
0,009064
-0,000402
#DATA
700,000000	0,000111
699,000000	-0,000025
698,000000	-0,000020
697,000000	-0,000402
696,000000	0,000107
695,000000	0,000152
694,000000	-0,000205
693,000000	0,000107
692,000000	0,000037
691,000000	0,000136
690,000000	-0,000185
689,000000	0,000324
688,000000	0,000066
687,000000	-0,000144
686,000000	-0,000016
685,000000	-0,000317
684,000000	-0,000115
683,000000	-0,000033
682,000000	-0,000054
681,000000	0,000066
680,000000	-0,000264
679,000000	-0,000157
678,000000	0,000317
677,000000	-0,000128
676,000000	0,000264
675,000000	-0,000045
674,000000	0,000425
673,000000	0,000012
672,000000	-0,000153
671,000000	0,000099
670,000000	0,000120
669,000000	0,000388
668,000000	-0,000178
667,000000	-0,000029
666,000000	-0,000174
665,000000	-0,000099
664,000000	-0,000182
663,000000	-0,000074
662,000000	-0,000095
661,000000	-0,000364
660,000000	-0,000116
659,000000	-0,000215
658,000000	-0,000248
657,000000	-0,000087
656,000000	-0,000166
655,000000	0,000207
654,000000	-0,000157
653,000000	-0,000091
652,000000	-0,000215
651,000000	-0,000186
650,000000	0,000133
649,000000	0,000145
648,000000	-0,000041
647,000000	-0,000100
646,000000	0,000216
645,000000	0,000000
644,000000	-0,000328
643,000000	0,000116
642,000000	-0,000195
641,000000	0,000100
640,000000	-0,000179
639,000000	0,000415
638,000000	0,000220
637,000000	-0,000187
636,000000	0,000021
635,000000	-0,000021
634,000000	0,000382
633,000000	-0,000199
632,000000	0,000033
631,000000	0,000324
630,000000	-0,000307
629,000000	-0,000087
628,000000	-0,000083
627,000000	0,000258
626,000000	-0,000312
625,000000	-0,000058
624,000000	0,000046
623,000000	0,000071
622,000000	-0,000091
621,000000	0,000033
620,000000	0,000378
619,000000	0,000141
618,000000	0,000037
617,000000	-0,000008
616,000000	0,000158
615,000000	0,000249
614,000000	-0,000037
613,000000	0,000021
612,000000	0,000249
611,000000	-0,000046
610,000000	0,000274
609,000000	-0,000025
608,000000	0,000461
607,000000	0,000075
606,000000	0,000062
605,000000	0,000436
604,000000	0,000262
603,000000	0,000274
602,000000	0,000071
601,000000	0,000316
600,000000	0,000133
599,000000	0,000311
598,000000	0,000179
597,000000	0,000137
596,000000	0,000415
595,000000	0,000374
594,000000	0,000145
593,000000	0,000137
592,000000	0,000565
591,000000	0,000004
590,000000	0,000137
589,000000	0,000341
588,000000	0,000125
587,000000	0,000104
586,000000	-0,000088
585,000000	0,000171
584,000000	0,000075
583,000000	-0,000008
582,000000	0,000101
581,000000	-0,000197
580,000000	0,000579
579,000000	0,000261
578,000000	0,000097
577,000000	0,000396
576,000000	0,000080
575,000000	0,000312
574,000000	0,000431
573,000000	0,000786
572,000000	0,000397
571,000000	0,000410
570,000000	0,000596
569,000000	0,000711
568,000000	0,000330
567,000000	0,000305
566,000000	0,000554
565,000000	0,000284
564,000000	0,000042
563,000000	0,000411
562,000000	0,000398
561,000000	-0,000085
560,000000	0,000153
559,000000	0,000372
558,000000	0,000542
557,000000	0,000013
556,000000	0,000457
555,000000	0,000440
554,000000	0,000271
553,000000	0,000423
552,000000	0,000571
551,000000	0,000826
550,000000	0,000571
549,000000	0,000563
548,000000	0,000652
547,000000	0,000567
546,000000	0,000351
545,000000	0,000525
544,000000	0,000292
543,000000	0,000250
542,000000	0,000698
541,000000	0,000525
540,000000	0,000537
539,000000	0,000635
538,000000	0,000605
537,000000	0,000825
536,000000	-0,000025
535,000000	0,000850
534,000000	0,000875
533,000000	0,000647
532,000000	0,000558
531,000000	0,001061
530,000000	0,000892
529,000000	0,000241
528,000000	0,000638
527,000000	0,000955
526,000000	0,000837
525,000000	0,001074
524,000000	0,000862
523,000000	0,001036
522,000000	0,000752
521,000000	0,000849
520,000000	0,001073
519,000000	0,001056
518,000000	0,000697
517,000000	0,000769
516,000000	0,000947
515,000000	0,000773
514,000000	0,000524
513,000000	0,001377
512,000000	0,001165
511,000000	0,001161
510,000000	0,000367
509,000000	0,001219
508,000000	0,001004
507,000000	0,001012
506,000000	0,000949
505,000000	0,000772
504,000000	0,001403
503,000000	0,000868
502,000000	0,001230
501,000000	0,000952
500,000000	0,001260
499,000000	0,001294
498,000000	0,000792
497,000000	0,001360
496,000000	0,001112
495,000000	0,001486
494,000000	0,001363
493,000000	0,001208
492,000000	0,001254
491,000000	0,001233
490,000000	0,001489
489,000000	0,001447
488,000000	0,001628
487,000000	0,001299
486,000000	0,001303
485,000000	0,001207
484,000000	0,001388
483,000000	0,001887
482,000000	0,001286
481,000000	0,001589
480,000000	0,001588
479,000000	0,001672
478,000000	0,001858
477,000000	0,001799
476,000000	0,002022
475,000000	0,001488
474,000000	0,001939
473,000000	0,001948
472,000000	0,001758
471,000000	0,002015
470,000000	0,001772
469,000000	0,002144
468,000000	0,002097
467,000000	0,002255
466,000000	0,001872
465,000000	0,002448
464,000000	0,002233
463,000000	0,002003
462,000000	0,002278
461,000000	0,002406
460,000000	0,002445
459,000000	0,002188
458,000000	0,002515
457,000000	0,002634
456,000000	0,002158
455,000000	0,002790
454,000000	0,002875
453,000000	0,002678
452,000000	0,002971
451,000000	0,002745
450,000000	0,002983
449,000000	0,002731
448,000000	0,002948
447,000000	0,003293
446,000000	0,002824
445,000000	0,002661
444,000000	0,002869
443,000000	0,003239
442,000000	0,003375
441,000000	0,003165
440,000000	0,003580
439,000000	0,003745
438,000000	0,003073
437,000000	0,003257
436,000000	0,003911
435,000000	0,003442
434,000000	0,003702
433,000000	0,004296
432,000000	0,003812
431,000000	0,004080
430,000000	0,004188
429,000000	0,004171
428,000000	0,003999
427,000000	0,003982
426,000000	0,004846
425,000000	0,004767
424,000000	0,005121
423,000000	0,004425
422,000000	0,005399
421,000000	0,004942
420,000000	0,005007
419,000000	0,005251
418,000000	0,005129
417,000000	0,005223
416,000000	0,005447
415,000000	0,005537
414,000000	0,005638
413,000000	0,005418
412,000000	0,005657
411,000000	0,005863
410,000000	0,006270
409,000000	0,006085
408,000000	0,006360
407,000000	0,006540
406,000000	0,006068
405,000000	0,006803
404,000000	0,006644
403,000000	0,007102
402,000000	0,006978
401,000000	0,007086
400,000000	0,007657
399,000000	0,007705
398,000000	0,007628
397,000000	0,007894
396,000000	0,008083
395,000000	0,008006
394,000000	0,008378
393,000000	0,008465
392,000000	0,008641
391,000000	0,008915
390,000000	0,009064
