PE UV       SUBTECH     SPECTRUM    ASCII       PEDS        4.00        
   -1
44 5x.Sample.Raw.asc
20/11/03
16:48:04.00
20/11/03
16:48:04.00
Analyst

390,000000
1
Lambda 25
501s11081509
PerkinElmer UV WinLab 6.0.3.0730 / Lambda25 1.27

480
2
1
0
0
Both on
1
1
1
None
0
0
0
0
 
 
0
0
0
0
0
 
 
 
0
 
0
326
0
 
0
 
 
 
0
0
0
 
0
 
 
 
0
 
 
0
0
0
0
0
 
 
 
 
0
0


#HDR
-1
-1
#GR
nm
A
1.0
0.0
700,000000
-1,000000
311
8
0,009095
0,001256
#DATA
700,000000	0,001735
699,000000	0,001396
698,000000	0,001568
697,000000	0,001352
696,000000	0,001631
695,000000	0,001677
694,000000	0,001427
693,000000	0,001764
692,000000	0,001448
691,000000	0,001608
690,000000	0,001481
689,000000	0,001757
688,000000	0,001515
687,000000	0,001256
686,000000	0,001771
685,000000	0,001554
684,000000	0,001422
683,000000	0,001642
682,000000	0,001386
681,000000	0,001474
680,000000	0,001478
679,000000	0,001599
678,000000	0,001954
677,000000	0,001376
676,000000	0,001504
675,000000	0,001603
674,000000	0,001778
673,000000	0,001659
672,000000	0,001816
671,000000	0,001804
670,000000	0,001725
669,000000	0,002190
668,000000	0,001420
667,000000	0,001731
666,000000	0,001616
665,000000	0,001852
664,000000	0,001591
663,000000	0,001761
662,000000	0,002023
661,000000	0,001991
660,000000	0,001920
659,000000	0,001646
658,000000	0,001460
657,000000	0,001988
656,000000	0,001613
655,000000	0,001846
654,000000	0,001830
653,000000	0,002071
652,000000	0,001615
651,000000	0,001578
650,000000	0,001777
649,000000	0,001802
648,000000	0,001803
647,000000	0,001774
646,000000	0,001757
645,000000	0,002024
644,000000	0,001567
643,000000	0,001896
642,000000	0,001542
641,000000	0,001464
640,000000	0,001827
639,000000	0,001888
638,000000	0,001834
637,000000	0,001994
636,000000	0,002102
635,000000	0,001785
634,000000	0,002172
633,000000	0,001673
632,000000	0,001865
631,000000	0,002085
630,000000	0,001499
629,000000	0,001861
628,000000	0,001853
627,000000	0,002015
626,000000	0,001758
625,000000	0,002036
624,000000	0,002186
623,000000	0,001953
622,000000	0,001965
621,000000	0,001990
620,000000	0,002440
619,000000	0,002378
618,000000	0,001974
617,000000	0,002162
616,000000	0,002350
615,000000	0,002299
614,000000	0,001766
613,000000	0,002074
612,000000	0,002037
611,000000	0,001937
610,000000	0,002545
609,000000	0,002158
608,000000	0,002392
607,000000	0,002425
606,000000	0,002438
605,000000	0,002398
604,000000	0,002132
603,000000	0,002257
602,000000	0,002128
601,000000	0,002377
600,000000	0,002261
599,000000	0,002656
598,000000	0,002599
597,000000	0,002419
596,000000	0,002310
595,000000	0,002527
594,000000	0,002323
593,000000	0,002191
592,000000	0,002661
591,000000	0,002673
590,000000	0,002524
589,000000	0,002529
588,000000	0,002280
587,000000	0,002172
586,000000	0,002042
585,000000	0,002219
584,000000	0,002678
583,000000	0,002514
582,000000	0,002551
581,000000	0,002347
580,000000	0,002803
579,000000	0,002609
578,000000	0,002747
577,000000	0,002647
576,000000	0,002595
575,000000	0,002987
574,000000	0,002688
573,000000	0,003020
572,000000	0,002912
571,000000	0,002840
570,000000	0,003062
569,000000	0,003007
568,000000	0,002958
567,000000	0,002690
566,000000	0,002872
565,000000	0,003087
564,000000	0,002513
563,000000	0,002819
562,000000	0,002730
561,000000	0,002604
560,000000	0,002349
559,000000	0,002857
558,000000	0,002890
557,000000	0,002794
556,000000	0,002801
555,000000	0,002547
554,000000	0,002765
553,000000	0,002943
552,000000	0,002946
551,000000	0,003129
550,000000	0,002895
549,000000	0,002762
548,000000	0,003263
547,000000	0,002864
546,000000	0,003005
545,000000	0,003029
544,000000	0,003009
543,000000	0,002749
542,000000	0,002825
541,000000	0,002906
540,000000	0,003287
539,000000	0,002778
538,000000	0,002812
537,000000	0,003185
536,000000	0,002650
535,000000	0,003269
534,000000	0,003353
533,000000	0,002925
532,000000	0,003324
531,000000	0,002864
530,000000	0,003230
529,000000	0,002866
528,000000	0,003264
527,000000	0,003153
526,000000	0,003060
525,000000	0,003515
524,000000	0,003212
523,000000	0,003444
522,000000	0,003133
521,000000	0,003382
520,000000	0,003734
519,000000	0,003611
518,000000	0,003213
517,000000	0,003122
516,000000	0,003343
515,000000	0,003063
514,000000	0,003004
513,000000	0,003522
512,000000	0,003636
511,000000	0,003357
510,000000	0,003311
509,000000	0,003545
508,000000	0,003424
507,000000	0,003516
506,000000	0,003472
505,000000	0,003294
504,000000	0,003816
503,000000	0,003225
502,000000	0,003872
501,000000	0,003727
500,000000	0,003642
499,000000	0,003684
498,000000	0,003341
497,000000	0,003627
496,000000	0,003517
495,000000	0,004062
494,000000	0,004188
493,000000	0,003987
492,000000	0,003951
491,000000	0,003642
490,000000	0,004125
489,000000	0,003706
488,000000	0,003990
487,000000	0,004159
486,000000	0,003867
485,000000	0,004083
484,000000	0,004028
483,000000	0,004744
482,000000	0,004191
481,000000	0,003722
480,000000	0,004260
479,000000	0,004277
478,000000	0,004464
477,000000	0,004292
476,000000	0,004435
475,000000	0,004252
474,000000	0,004382
473,000000	0,004231
472,000000	0,004425
471,000000	0,004655
470,000000	0,004463
469,000000	0,004616
468,000000	0,004939
467,000000	0,004709
466,000000	0,004704
465,000000	0,004790
464,000000	0,004763
463,000000	0,004407
462,000000	0,004893
461,000000	0,004843
460,000000	0,004785
459,000000	0,004814
458,000000	0,005310
457,000000	0,004994
456,000000	0,004505
455,000000	0,005439
454,000000	0,005462
453,000000	0,004944
452,000000	0,005276
451,000000	0,005477
450,000000	0,005524
449,000000	0,005247
448,000000	0,005337
447,000000	0,005860
446,000000	0,005477
445,000000	0,005028
444,000000	0,005431
443,000000	0,005817
442,000000	0,005649
441,000000	0,005565
440,000000	0,005982
439,000000	0,005865
438,000000	0,005584
437,000000	0,006081
436,000000	0,005993
435,000000	0,005986
434,000000	0,005756
433,000000	0,006337
432,000000	0,006025
431,000000	0,005913
430,000000	0,006404
429,000000	0,006655
428,000000	0,005671
427,000000	0,006182
426,000000	0,006724
425,000000	0,006483
424,000000	0,006683
423,000000	0,006297
422,000000	0,007663
421,000000	0,006744
420,000000	0,006423
419,000000	0,006753
418,000000	0,007052
417,000000	0,007012
416,000000	0,007206
415,000000	0,007044
414,000000	0,007440
413,000000	0,006912
412,000000	0,006913
411,000000	0,006993
410,000000	0,007470
409,000000	0,007306
408,000000	0,007655
407,000000	0,007736
406,000000	0,007506
405,000000	0,007899
404,000000	0,007511
403,000000	0,007964
402,000000	0,007962
401,000000	0,007927
400,000000	0,008490
399,000000	0,008260
398,000000	0,008253
397,000000	0,008483
396,000000	0,008452
395,000000	0,008375
394,000000	0,008586
393,000000	0,008647
392,000000	0,008880
391,000000	0,008876
390,000000	0,009095
