PE UV       SUBTECH     SPECTRUM    ASCII       PEDS        4.00        
   -1
49.Sample.Raw.asc
20/11/03
15:02:48.00
20/11/03
15:02:48.00
Analyst

390,000000
1
Lambda 25
501s11081509
PerkinElmer UV WinLab 6.0.3.0730 / Lambda25 1.27

480
2
1
0
0
Both on
1
1
1
None
0
0
0
0
 
 
0
0
0
0
0
 
 
 
0
 
0
326
0
 
0
 
 
 
0
0
0
 
0
 
 
 
0
 
 
0
0
0
0
0
 
 
 
 
0
0


#HDR
-1
-1
#GR
nm
A
1.0
0.0
700,000000
-1,000000
311
8
1,335266
0,001114
#DATA
700,000000	0,001649
699,000000	0,001535
698,000000	0,001581
697,000000	0,001294
696,000000	0,001540
695,000000	0,001541
694,000000	0,001357
693,000000	0,001480
692,000000	0,001596
691,000000	0,001666
690,000000	0,001234
689,000000	0,001740
688,000000	0,001412
687,000000	0,001557
686,000000	0,001342
685,000000	0,001117
684,000000	0,001513
683,000000	0,001394
682,000000	0,001130
681,000000	0,001114
680,000000	0,001127
679,000000	0,001193
678,000000	0,001515
677,000000	0,001227
676,000000	0,001603
675,000000	0,001496
674,000000	0,001653
673,000000	0,001207
672,000000	0,001373
671,000000	0,001323
670,000000	0,001402
669,000000	0,001767
668,000000	0,001424
667,000000	0,001619
666,000000	0,001396
665,000000	0,001404
664,000000	0,001412
663,000000	0,001474
662,000000	0,001421
661,000000	0,001272
660,000000	0,001749
659,000000	0,001517
658,000000	0,001381
657,000000	0,001539
656,000000	0,001738
655,000000	0,001634
654,000000	0,001780
653,000000	0,002046
652,000000	0,001715
651,000000	0,001561
650,000000	0,001694
649,000000	0,001943
648,000000	0,001978
647,000000	0,002078
646,000000	0,002065
645,000000	0,002095
644,000000	0,002063
643,000000	0,001988
642,000000	0,002038
641,000000	0,002039
640,000000	0,001652
639,000000	0,002151
638,000000	0,002305
637,000000	0,002127
636,000000	0,002436
635,000000	0,002231
634,000000	0,002736
633,000000	0,002140
632,000000	0,002303
631,000000	0,002527
630,000000	0,002187
629,000000	0,002437
628,000000	0,002392
627,000000	0,002529
626,000000	0,002376
625,000000	0,002725
624,000000	0,002545
623,000000	0,002604
622,000000	0,002767
621,000000	0,002654
620,000000	0,003025
619,000000	0,002645
618,000000	0,002943
617,000000	0,002826
616,000000	0,003044
615,000000	0,002938
614,000000	0,002689
613,000000	0,002667
612,000000	0,002710
611,000000	0,002831
610,000000	0,003034
609,000000	0,002785
608,000000	0,002818
607,000000	0,002969
606,000000	0,002973
605,000000	0,003059
604,000000	0,002613
603,000000	0,002909
602,000000	0,002813
601,000000	0,002807
600,000000	0,002738
599,000000	0,003208
598,000000	0,003046
597,000000	0,002758
596,000000	0,003058
595,000000	0,003200
594,000000	0,002837
593,000000	0,002508
592,000000	0,003317
591,000000	0,002765
590,000000	0,002808
589,000000	0,003057
588,000000	0,003126
587,000000	0,003317
586,000000	0,002491
585,000000	0,002773
584,000000	0,003078
583,000000	0,002864
582,000000	0,002576
581,000000	0,002448
580,000000	0,002981
579,000000	0,002824
578,000000	0,002633
577,000000	0,002778
576,000000	0,002972
575,000000	0,002745
574,000000	0,002646
573,000000	0,002956
572,000000	0,002870
571,000000	0,002908
570,000000	0,002981
569,000000	0,003066
568,000000	0,002613
567,000000	0,002639
566,000000	0,002796
565,000000	0,002767
564,000000	0,002569
563,000000	0,002529
562,000000	0,003019
561,000000	0,002515
560,000000	0,002728
559,000000	0,003308
558,000000	0,003371
557,000000	0,002883
556,000000	0,003483
555,000000	0,003309
554,000000	0,003114
553,000000	0,003454
552,000000	0,003513
551,000000	0,003487
550,000000	0,003470
549,000000	0,003585
548,000000	0,003485
547,000000	0,003473
546,000000	0,003427
545,000000	0,003792
544,000000	0,003537
543,000000	0,003562
542,000000	0,003690
541,000000	0,003885
540,000000	0,003862
539,000000	0,003698
538,000000	0,003915
537,000000	0,004348
536,000000	0,003604
535,000000	0,004147
534,000000	0,004265
533,000000	0,004225
532,000000	0,004040
531,000000	0,004482
530,000000	0,004516
529,000000	0,004217
528,000000	0,004534
527,000000	0,004658
526,000000	0,004667
525,000000	0,004687
524,000000	0,005080
523,000000	0,004748
522,000000	0,004547
521,000000	0,005210
520,000000	0,005256
519,000000	0,005346
518,000000	0,005071
517,000000	0,005073
516,000000	0,005142
515,000000	0,005131
514,000000	0,004981
513,000000	0,005750
512,000000	0,005895
511,000000	0,005568
510,000000	0,005672
509,000000	0,006161
508,000000	0,005570
507,000000	0,006081
506,000000	0,005945
505,000000	0,006104
504,000000	0,006439
503,000000	0,006454
502,000000	0,006610
501,000000	0,006503
500,000000	0,006734
499,000000	0,006772
498,000000	0,006944
497,000000	0,007147
496,000000	0,007474
495,000000	0,007503
494,000000	0,007547
493,000000	0,007852
492,000000	0,007943
491,000000	0,007772
490,000000	0,008385
489,000000	0,008543
488,000000	0,008569
487,000000	0,008559
486,000000	0,008877
485,000000	0,009023
484,000000	0,009053
483,000000	0,009793
482,000000	0,009802
481,000000	0,009896
480,000000	0,010548
479,000000	0,010844
478,000000	0,010969
477,000000	0,011279
476,000000	0,011500
475,000000	0,011328
474,000000	0,012308
473,000000	0,012183
472,000000	0,012739
471,000000	0,013194
470,000000	0,013136
469,000000	0,013956
468,000000	0,014227
467,000000	0,014678
466,000000	0,014990
465,000000	0,015591
464,000000	0,016133
463,000000	0,016499
462,000000	0,017183
461,000000	0,017579
460,000000	0,018393
459,000000	0,019104
458,000000	0,020076
457,000000	0,020766
456,000000	0,021167
455,000000	0,022057
454,000000	0,023193
453,000000	0,023453
452,000000	0,024702
451,000000	0,026221
450,000000	0,027693
449,000000	0,028306
448,000000	0,030196
447,000000	0,031803
446,000000	0,032788
445,000000	0,034258
444,000000	0,036841
443,000000	0,039286
442,000000	0,042251
441,000000	0,044875
440,000000	0,048569
439,000000	0,052514
438,000000	0,056076
437,000000	0,062198
436,000000	0,068435
435,000000	0,075185
434,000000	0,083744
433,000000	0,094829
432,000000	0,106662
431,000000	0,121359
430,000000	0,140842
429,000000	0,161773
428,000000	0,185005
427,000000	0,211942
426,000000	0,243144
425,000000	0,274348
424,000000	0,312945
423,000000	0,355981
422,000000	0,407031
421,000000	0,456162
420,000000	0,515046
419,000000	0,580266
418,000000	0,649424
417,000000	0,713572
416,000000	0,783732
415,000000	0,857933
414,000000	0,932641
413,000000	1,004541
412,000000	1,073353
411,000000	1,137110
410,000000	1,191846
409,000000	1,236041
408,000000	1,270557
407,000000	1,295432
406,000000	1,314380
405,000000	1,326102
404,000000	1,331177
403,000000	1,331152
402,000000	1,332858
401,000000	1,335266
400,000000	1,334104
399,000000	1,333103
398,000000	1,331180
397,000000	1,327288
396,000000	1,324446
395,000000	1,318533
394,000000	1,315686
393,000000	1,314489
392,000000	1,310357
391,000000	1,306452
390,000000	1,303131
