PE UV       SUBTECH     SPECTRUM    ASCII       PEDS        4.00        
   -1
7 5x.Sample.Raw.asc
20/11/03
16:42:41.00
20/11/03
16:42:41.00
Analyst

390,000000
1
Lambda 25
501s11081509
PerkinElmer UV WinLab 6.0.3.0730 / Lambda25 1.27

480
2
1
0
0
Both on
1
1
1
None
0
0
0
0
 
 
0
0
0
0
0
 
 
 
0
 
0
326
0
 
0
 
 
 
0
0
0
 
0
 
 
 
0
 
 
0
0
0
0
0
 
 
 
 
0
0


#HDR
-1
-1
#GR
nm
A
1.0
0.0
700,000000
-1,000000
311
8
0,009873
0,001335
#DATA
700,000000	0,001711
699,000000	0,001725
698,000000	0,001556
697,000000	0,001335
696,000000	0,001590
695,000000	0,001722
694,000000	0,001612
693,000000	0,001818
692,000000	0,001567
691,000000	0,001827
690,000000	0,001568
689,000000	0,001967
688,000000	0,001602
687,000000	0,001689
686,000000	0,001994
685,000000	0,001488
684,000000	0,001583
683,000000	0,001696
682,000000	0,001758
681,000000	0,001366
680,000000	0,001478
679,000000	0,001793
678,000000	0,002128
677,000000	0,001620
676,000000	0,001781
675,000000	0,002059
674,000000	0,001856
673,000000	0,001538
672,000000	0,001696
671,000000	0,001965
670,000000	0,002040
669,000000	0,001891
668,000000	0,001735
667,000000	0,002150
666,000000	0,001744
665,000000	0,001885
664,000000	0,001869
663,000000	0,002097
662,000000	0,001815
661,000000	0,001899
660,000000	0,002007
659,000000	0,002058
658,000000	0,001796
657,000000	0,001813
656,000000	0,001655
655,000000	0,001983
654,000000	0,002017
653,000000	0,001950
652,000000	0,001669
651,000000	0,001782
650,000000	0,002122
649,000000	0,002260
648,000000	0,001824
647,000000	0,001754
646,000000	0,002111
645,000000	0,002107
644,000000	0,001667
643,000000	0,001921
642,000000	0,001930
641,000000	0,001872
640,000000	0,001852
639,000000	0,002205
638,000000	0,001984
637,000000	0,002219
636,000000	0,002085
635,000000	0,002365
634,000000	0,002339
633,000000	0,002395
632,000000	0,001924
631,000000	0,002598
630,000000	0,002120
629,000000	0,002170
628,000000	0,002187
627,000000	0,001948
626,000000	0,002012
625,000000	0,002400
624,000000	0,002416
623,000000	0,002395
622,000000	0,002270
621,000000	0,002470
620,000000	0,002511
619,000000	0,002457
618,000000	0,002542
617,000000	0,002496
616,000000	0,002391
615,000000	0,002412
614,000000	0,002175
613,000000	0,002484
612,000000	0,002338
611,000000	0,002129
610,000000	0,002938
609,000000	0,002638
608,000000	0,002450
607,000000	0,002710
606,000000	0,002408
605,000000	0,002862
604,000000	0,002492
603,000000	0,002570
602,000000	0,002779
601,000000	0,002665
600,000000	0,002470
599,000000	0,002957
598,000000	0,002832
597,000000	0,002866
596,000000	0,002599
595,000000	0,003016
594,000000	0,002407
593,000000	0,002838
592,000000	0,002849
591,000000	0,002882
590,000000	0,002595
589,000000	0,002927
588,000000	0,002824
587,000000	0,002654
586,000000	0,002164
585,000000	0,002626
584,000000	0,002943
583,000000	0,002624
582,000000	0,003078
581,000000	0,002934
580,000000	0,003429
579,000000	0,002981
578,000000	0,002946
577,000000	0,003194
576,000000	0,003159
575,000000	0,003135
574,000000	0,003249
573,000000	0,003713
572,000000	0,003534
571,000000	0,003389
570,000000	0,003522
569,000000	0,003722
568,000000	0,003589
567,000000	0,003133
566,000000	0,003102
565,000000	0,003726
564,000000	0,003319
563,000000	0,003693
562,000000	0,003612
561,000000	0,002860
560,000000	0,003155
559,000000	0,003509
558,000000	0,003286
557,000000	0,002934
556,000000	0,003449
555,000000	0,003143
554,000000	0,003050
553,000000	0,003390
552,000000	0,003530
551,000000	0,003359
550,000000	0,003632
549,000000	0,003512
548,000000	0,003459
547,000000	0,003439
546,000000	0,003265
545,000000	0,003399
544,000000	0,003162
543,000000	0,003422
542,000000	0,003166
541,000000	0,003080
540,000000	0,003525
539,000000	0,003323
538,000000	0,003335
537,000000	0,003368
536,000000	0,003204
535,000000	0,003878
534,000000	0,003711
533,000000	0,003279
532,000000	0,003857
531,000000	0,003821
530,000000	0,003655
529,000000	0,003202
528,000000	0,003596
527,000000	0,003817
526,000000	0,003839
525,000000	0,003830
524,000000	0,004132
523,000000	0,003737
522,000000	0,003844
521,000000	0,003845
520,000000	0,004040
519,000000	0,004015
518,000000	0,003604
517,000000	0,003896
516,000000	0,003743
515,000000	0,003872
514,000000	0,003498
513,000000	0,004100
512,000000	0,004108
511,000000	0,004033
510,000000	0,003804
509,000000	0,004115
508,000000	0,003917
507,000000	0,004034
506,000000	0,004326
505,000000	0,003931
504,000000	0,004449
503,000000	0,003918
502,000000	0,004356
501,000000	0,004143
500,000000	0,004131
499,000000	0,004049
498,000000	0,004271
497,000000	0,004331
496,000000	0,004184
495,000000	0,004414
494,000000	0,004455
493,000000	0,004089
492,000000	0,004308
491,000000	0,004359
490,000000	0,004736
489,000000	0,004464
488,000000	0,004422
487,000000	0,004384
486,000000	0,004681
485,000000	0,004520
484,000000	0,004202
483,000000	0,004973
482,000000	0,005175
481,000000	0,004413
480,000000	0,004587
479,000000	0,005087
478,000000	0,005002
477,000000	0,004834
476,000000	0,004893
475,000000	0,004778
474,000000	0,004912
473,000000	0,004948
472,000000	0,004854
471,000000	0,005045
470,000000	0,005011
469,000000	0,004816
468,000000	0,005372
467,000000	0,005015
466,000000	0,005240
465,000000	0,005578
464,000000	0,005300
463,000000	0,005063
462,000000	0,005439
461,000000	0,005445
460,000000	0,005673
459,000000	0,005164
458,000000	0,005622
457,000000	0,005669
456,000000	0,005283
455,000000	0,006060
454,000000	0,006108
453,000000	0,005436
452,000000	0,005734
451,000000	0,005867
450,000000	0,005858
449,000000	0,006066
448,000000	0,006259
447,000000	0,006560
446,000000	0,006070
445,000000	0,005995
444,000000	0,006094
443,000000	0,006179
442,000000	0,006363
441,000000	0,005940
440,000000	0,007073
439,000000	0,006784
438,000000	0,006539
437,000000	0,006470
436,000000	0,006628
435,000000	0,006505
434,000000	0,006063
433,000000	0,006718
432,000000	0,006830
431,000000	0,006788
430,000000	0,006868
429,000000	0,007180
428,000000	0,006815
427,000000	0,006789
426,000000	0,006975
425,000000	0,007710
424,000000	0,007364
423,000000	0,007078
422,000000	0,007494
421,000000	0,007096
420,000000	0,007543
419,000000	0,007530
418,000000	0,007755
417,000000	0,007655
416,000000	0,008105
415,000000	0,007804
414,000000	0,007996
413,000000	0,007698
412,000000	0,007764
411,000000	0,007830
410,000000	0,008216
409,000000	0,008114
408,000000	0,008450
407,000000	0,008548
406,000000	0,008270
405,000000	0,008403
404,000000	0,008227
403,000000	0,008785
402,000000	0,008622
401,000000	0,008918
400,000000	0,009224
399,000000	0,009128
398,000000	0,009004
397,000000	0,009122
396,000000	0,009173
395,000000	0,009000
394,000000	0,009420
393,000000	0,009346
392,000000	0,009653
391,000000	0,009449
390,000000	0,009873
