PE UV       SUBTECH     SPECTRUM    ASCII       PEDS        4.00        
   -1
1_100-1500.Sample.Raw.asc
20/10/06
16:26:40.00
20/10/06
16:26:40.00
Analyst

390,000000
1
Lambda 25
501s11081509
PerkinElmer UV WinLab 6.0.3.0730 / Lambda25 1.27

480
2
1
0
0
Both on
1
1
1
None
0
0
0
0
 
 
0
0
0
0
0
 
 
 
0
 
0
326
0
 
0
 
 
 
0
0
0
 
0
 
 
 
0
 
 
0
0
0
0
0
 
 
 
 
0
0


#HDR
-1
-1
#GR
nm
A
1.0
0.0
700,000000
-1,000000
311
8
0,046047
0,000194
#DATA
700,000000	0,000726
699,000000	0,000640
698,000000	0,000603
697,000000	0,000690
696,000000	0,000353
695,000000	0,000665
694,000000	0,000353
693,000000	0,000748
692,000000	0,000313
691,000000	0,000588
690,000000	0,000494
689,000000	0,000613
688,000000	0,000906
687,000000	0,000436
686,000000	0,000605
685,000000	0,000424
684,000000	0,000647
683,000000	0,000648
682,000000	0,000557
681,000000	0,000532
680,000000	0,000326
679,000000	0,000553
678,000000	0,000351
677,000000	0,000372
676,000000	0,000359
675,000000	0,000194
674,000000	0,000318
673,000000	0,000868
672,000000	0,000798
671,000000	0,000343
670,000000	0,000926
669,000000	0,000724
668,000000	0,000538
667,000000	0,000472
666,000000	0,000588
665,000000	0,000704
664,000000	0,000650
663,000000	0,000824
662,000000	0,000717
661,000000	0,000742
660,000000	0,000700
659,000000	0,000348
658,000000	0,000464
657,000000	0,000274
656,000000	0,000589
655,000000	0,000651
654,000000	0,000639
653,000000	0,000838
652,000000	0,000573
651,000000	0,000460
650,000000	0,000469
649,000000	0,000448
648,000000	0,000639
647,000000	0,000482
646,000000	0,000897
645,000000	0,000552
644,000000	0,000697
643,000000	0,000918
642,000000	0,000943
641,000000	0,000740
640,000000	0,000632
639,000000	0,000636
638,000000	0,000723
637,000000	0,000528
636,000000	0,000628
635,000000	0,000607
634,000000	0,000520
633,000000	0,000682
632,000000	0,000865
631,000000	0,000632
630,000000	0,000702
629,000000	0,000828
628,000000	0,001081
627,000000	0,000861
626,000000	0,000869
625,000000	0,000944
624,000000	0,000790
623,000000	0,000807
622,000000	0,000545
621,000000	0,001044
620,000000	0,000757
619,000000	0,000919
618,000000	0,001061
617,000000	0,000595
616,000000	0,001044
615,000000	0,000745
614,000000	0,000582
613,000000	0,000865
612,000000	0,000470
611,000000	0,000928
610,000000	0,000437
609,000000	0,000482
608,000000	0,000574
607,000000	0,000736
606,000000	0,000678
605,000000	0,000740
604,000000	0,000441
603,000000	0,000482
602,000000	0,000719
601,000000	0,000694
600,000000	0,000569
599,000000	0,000836
598,000000	0,000769
597,000000	0,000894
596,000000	0,000927
595,000000	0,001010
594,000000	0,000844
593,000000	0,001106
592,000000	0,001061
591,000000	0,000961
590,000000	0,001025
589,000000	0,000917
588,000000	0,000934
587,000000	0,001006
586,000000	0,000931
585,000000	0,000857
584,000000	0,000766
583,000000	0,000913
582,000000	0,000872
581,000000	0,001021
580,000000	0,000942
579,000000	0,001305
578,000000	0,001113
577,000000	0,001046
576,000000	0,001296
575,000000	0,001204
574,000000	0,001243
573,000000	0,000863
572,000000	0,001190
571,000000	0,001106
570,000000	0,001050
569,000000	0,001466
568,000000	0,001399
567,000000	0,001823
566,000000	0,001590
565,000000	0,001315
564,000000	0,001145
563,000000	0,001234
562,000000	0,001209
561,000000	0,001039
560,000000	0,001116
559,000000	0,001318
558,000000	0,001098
557,000000	0,001085
556,000000	0,001144
555,000000	0,000945
554,000000	0,000623
553,000000	0,000953
552,000000	0,000915
551,000000	0,000758
550,000000	0,001077
549,000000	0,000979
548,000000	0,001173
547,000000	0,001254
546,000000	0,001266
545,000000	0,001524
544,000000	0,001291
543,000000	0,001554
542,000000	0,001329
541,000000	0,000973
540,000000	0,001279
539,000000	0,001130
538,000000	0,001334
537,000000	0,001244
536,000000	0,001439
535,000000	0,001625
534,000000	0,001337
533,000000	0,001486
532,000000	0,001578
531,000000	0,001490
530,000000	0,001439
529,000000	0,001443
528,000000	0,001248
527,000000	0,001553
526,000000	0,001782
525,000000	0,001147
524,000000	0,001248
523,000000	0,001435
522,000000	0,001456
521,000000	0,001375
520,000000	0,001383
519,000000	0,001997
518,000000	0,001616
517,000000	0,001954
516,000000	0,001735
515,000000	0,001704
514,000000	0,001357
513,000000	0,001611
512,000000	0,001479
511,000000	0,001719
510,000000	0,001720
509,000000	0,001812
508,000000	0,001774
507,000000	0,001973
506,000000	0,002053
505,000000	0,002229
504,000000	0,002288
503,000000	0,002030
502,000000	0,002305
501,000000	0,002144
500,000000	0,002392
499,000000	0,002307
498,000000	0,002522
497,000000	0,002489
496,000000	0,002314
495,000000	0,002171
494,000000	0,002120
493,000000	0,002183
492,000000	0,002314
491,000000	0,002465
490,000000	0,002973
489,000000	0,002645
488,000000	0,002648
487,000000	0,002682
486,000000	0,002483
485,000000	0,002485
484,000000	0,002762
483,000000	0,002518
482,000000	0,002420
481,000000	0,003105
480,000000	0,002950
479,000000	0,003113
478,000000	0,002909
477,000000	0,002718
476,000000	0,002580
475,000000	0,002677
474,000000	0,002884
473,000000	0,003133
472,000000	0,003208
471,000000	0,003331
470,000000	0,003411
469,000000	0,002967
468,000000	0,003059
467,000000	0,002911
466,000000	0,003104
465,000000	0,003159
464,000000	0,003095
463,000000	0,003217
462,000000	0,003290
461,000000	0,003044
460,000000	0,003265
459,000000	0,003325
458,000000	0,003519
457,000000	0,003521
456,000000	0,003592
455,000000	0,003292
454,000000	0,003702
453,000000	0,003527
452,000000	0,003819
451,000000	0,003872
450,000000	0,003671
449,000000	0,003978
448,000000	0,003901
447,000000	0,003995
446,000000	0,003934
445,000000	0,003878
444,000000	0,004628
443,000000	0,004626
442,000000	0,004240
441,000000	0,004545
440,000000	0,004504
439,000000	0,004812
438,000000	0,004348
437,000000	0,004516
436,000000	0,004946
435,000000	0,004474
434,000000	0,005005
433,000000	0,005181
432,000000	0,005060
431,000000	0,005017
430,000000	0,005357
429,000000	0,004874
428,000000	0,005124
427,000000	0,005804
426,000000	0,005696
425,000000	0,006377
424,000000	0,005369
423,000000	0,006466
422,000000	0,006282
421,000000	0,006548
420,000000	0,006910
419,000000	0,007106
418,000000	0,007503
417,000000	0,007784
416,000000	0,008328
415,000000	0,008542
414,000000	0,009013
413,000000	0,009297
412,000000	0,009537
411,000000	0,010095
410,000000	0,010688
409,000000	0,011421
408,000000	0,011861
407,000000	0,012689
406,000000	0,013495
405,000000	0,013999
404,000000	0,015132
403,000000	0,016416
402,000000	0,017234
401,000000	0,018701
400,000000	0,019985
399,000000	0,021738
398,000000	0,023675
397,000000	0,025656
396,000000	0,027200
395,000000	0,029842
394,000000	0,032186
393,000000	0,035304
392,000000	0,038387
391,000000	0,041681
390,000000	0,046047
