PE UV       SUBTECH     SPECTRUM    ASCII       PEDS        4.00        
   -1
24_100-1500.Sample.Raw.asc
20/10/06
16:31:50.00
20/10/06
16:31:50.00
Analyst

390,000000
1
Lambda 25
501s11081509
PerkinElmer UV WinLab 6.0.3.0730 / Lambda25 1.27

480
2
1
0
0
Both on
1
1
1
None
0
0
0
0
 
 
0
0
0
0
0
 
 
 
0
 
0
326
0
 
0
 
 
 
0
0
0
 
0
 
 
 
0
 
 
0
0
0
0
0
 
 
 
 
0
0


#HDR
-1
-1
#GR
nm
A
1.0
0.0
700,000000
-1,000000
311
8
0,005347
0,000095
#DATA
700,000000	0,000426
699,000000	0,000628
698,000000	0,000566
697,000000	0,000361
696,000000	0,000411
695,000000	0,000534
694,000000	0,000341
693,000000	0,000678
692,000000	0,000247
691,000000	0,000514
690,000000	0,000535
689,000000	0,000675
688,000000	0,000539
687,000000	0,000564
686,000000	0,000465
685,000000	0,000297
684,000000	0,000639
683,000000	0,000268
682,000000	0,000478
681,000000	0,000289
680,000000	0,000367
679,000000	0,000202
678,000000	0,000239
677,000000	0,000231
676,000000	0,000264
675,000000	0,000120
674,000000	0,000273
673,000000	0,000665
672,000000	0,000707
671,000000	0,000273
670,000000	0,000822
669,000000	0,000575
668,000000	0,000496
667,000000	0,000281
666,000000	0,000828
665,000000	0,000559
664,000000	0,000327
663,000000	0,000658
662,000000	0,000791
661,000000	0,000621
660,000000	0,000414
659,000000	0,000220
658,000000	0,000352
657,000000	0,000381
656,000000	0,000572
655,000000	0,000742
654,000000	0,000717
653,000000	0,000680
652,000000	0,000506
651,000000	0,000523
650,000000	0,000232
649,000000	0,000095
648,000000	0,000564
647,000000	0,000361
646,000000	0,000677
645,000000	0,000656
644,000000	0,000722
643,000000	0,000972
642,000000	0,000839
641,000000	0,000552
640,000000	0,000648
639,000000	0,000615
638,000000	0,000636
637,000000	0,000894
636,000000	0,000461
635,000000	0,000723
634,000000	0,000561
633,000000	0,000549
632,000000	0,000790
631,000000	0,000661
630,000000	0,000740
629,000000	0,000878
628,000000	0,001056
627,000000	0,000699
626,000000	0,000932
625,000000	0,001302
624,000000	0,000616
623,000000	0,000653
622,000000	0,000624
621,000000	0,000903
620,000000	0,000715
619,000000	0,000915
618,000000	0,000782
617,000000	0,000782
616,000000	0,001007
615,000000	0,000570
614,000000	0,000795
613,000000	0,000586
612,000000	0,000666
611,000000	0,000844
610,000000	0,000520
609,000000	0,000695
608,000000	0,000724
607,000000	0,000911
606,000000	0,000599
605,000000	0,000665
604,000000	0,000403
603,000000	0,000574
602,000000	0,000682
601,000000	0,000799
600,000000	0,000644
599,000000	0,000765
598,000000	0,000815
597,000000	0,000732
596,000000	0,000906
595,000000	0,001039
594,000000	0,000799
593,000000	0,001106
592,000000	0,001102
591,000000	0,001311
590,000000	0,000929
589,000000	0,000855
588,000000	0,000801
587,000000	0,000843
586,000000	0,000835
585,000000	0,000681
584,000000	0,000607
583,000000	0,001010
582,000000	0,001192
581,000000	0,001076
580,000000	0,000938
579,000000	0,001326
578,000000	0,001020
577,000000	0,001152
576,000000	0,001101
575,000000	0,000862
574,000000	0,001078
573,000000	0,000982
572,000000	0,000863
571,000000	0,000796
570,000000	0,001169
569,000000	0,001216
568,000000	0,001479
567,000000	0,001161
566,000000	0,001437
565,000000	0,000988
564,000000	0,000963
563,000000	0,001077
562,000000	0,000848
561,000000	0,001183
560,000000	0,000700
559,000000	0,001004
558,000000	0,000877
557,000000	0,000864
556,000000	0,001272
555,000000	0,000771
554,000000	0,000509
553,000000	0,001059
552,000000	0,000691
551,000000	0,000881
550,000000	0,000602
549,000000	0,000754
548,000000	0,000783
547,000000	0,001050
546,000000	0,000978
545,000000	0,001104
544,000000	0,001228
543,000000	0,001032
542,000000	0,001138
541,000000	0,001143
540,000000	0,000800
539,000000	0,000999
538,000000	0,001007
537,000000	0,001032
536,000000	0,001176
535,000000	0,001384
534,000000	0,001066
533,000000	0,001266
532,000000	0,001290
531,000000	0,001193
530,000000	0,001214
529,000000	0,001261
528,000000	0,001062
527,000000	0,001108
526,000000	0,001010
525,000000	0,000689
524,000000	0,001062
523,000000	0,001002
522,000000	0,001024
521,000000	0,001214
520,000000	0,001129
519,000000	0,001222
518,000000	0,001116
517,000000	0,001179
516,000000	0,001142
515,000000	0,001023
514,000000	0,001031
513,000000	0,001099
512,000000	0,001280
511,000000	0,001525
510,000000	0,001271
509,000000	0,001381
508,000000	0,001224
507,000000	0,001419
506,000000	0,001224
505,000000	0,001671
504,000000	0,001417
503,000000	0,001641
502,000000	0,001472
501,000000	0,001468
500,000000	0,001564
499,000000	0,001610
498,000000	0,001580
497,000000	0,001331
496,000000	0,001774
495,000000	0,001385
494,000000	0,001365
493,000000	0,001579
492,000000	0,001466
491,000000	0,001705
490,000000	0,002297
489,000000	0,001847
488,000000	0,001767
487,000000	0,001682
486,000000	0,001737
485,000000	0,001616
484,000000	0,002032
483,000000	0,001611
482,000000	0,001665
481,000000	0,002152
480,000000	0,002081
479,000000	0,002244
478,000000	0,001896
477,000000	0,001854
476,000000	0,001884
475,000000	0,002082
474,000000	0,001855
473,000000	0,002133
472,000000	0,002309
471,000000	0,002736
470,000000	0,002101
469,000000	0,002291
468,000000	0,001938
467,000000	0,002074
466,000000	0,002092
465,000000	0,002341
464,000000	0,002171
463,000000	0,002132
462,000000	0,002450
461,000000	0,002004
460,000000	0,002267
459,000000	0,002386
458,000000	0,002197
457,000000	0,002492
456,000000	0,002576
455,000000	0,002534
454,000000	0,002344
453,000000	0,002514
452,000000	0,002464
451,000000	0,002812
450,000000	0,002537
449,000000	0,002725
448,000000	0,002553
447,000000	0,002911
446,000000	0,002644
445,000000	0,002613
444,000000	0,003311
443,000000	0,003227
442,000000	0,003136
441,000000	0,002967
440,000000	0,003029
439,000000	0,003108
438,000000	0,003137
437,000000	0,003163
436,000000	0,003501
435,000000	0,003196
434,000000	0,002905
433,000000	0,003304
432,000000	0,002748
431,000000	0,002860
430,000000	0,003736
429,000000	0,003021
428,000000	0,003081
427,000000	0,003471
426,000000	0,003755
425,000000	0,003929
424,000000	0,003022
423,000000	0,003326
422,000000	0,003336
421,000000	0,003677
420,000000	0,004008
419,000000	0,003969
418,000000	0,003985
417,000000	0,004066
416,000000	0,004215
415,000000	0,004194
414,000000	0,004373
413,000000	0,004451
412,000000	0,004150
411,000000	0,004458
410,000000	0,004556
409,000000	0,004571
408,000000	0,004285
407,000000	0,004400
406,000000	0,004627
405,000000	0,004456
404,000000	0,004716
403,000000	0,005044
402,000000	0,004346
401,000000	0,004713
400,000000	0,004980
399,000000	0,004872
398,000000	0,005019
397,000000	0,004992
396,000000	0,004784
395,000000	0,005136
394,000000	0,005323
393,000000	0,005100
392,000000	0,005221
391,000000	0,005139
390,000000	0,005347
