PE UV       SUBTECH     SPECTRUM    ASCII       PEDS        4.00        
   -1
100% or 0 Absorbance Baseline.Correction.Raw.asc
20/11/03
14:28:14.00
20/11/03
14:28:14.00
Analyst

390,000000
1
Lambda 25
501s11081509
PerkinElmer UV WinLab 6.0.3.0730 / Lambda25 1.27

480
0
1
0
0
Both on
0
1
1
None
0
0
0
0
 
 
0
0
0
0
0
 
 
 
0
 
0
326
0
 
0
 
 
 
0
0
0
 
0
 
 
 
0
 
 
0
0
0
0
0
 
 
 
 
0
0


#HDR
-1
-1
#GR
nm
A
1.0
0.0
700,000000
-1,000000
311
8
-0,007026
-0,025568
#DATA
700,000000	-0,025568
699,000000	-0,025191
698,000000	-0,025154
697,000000	-0,024773
696,000000	-0,024957
695,000000	-0,024765
694,000000	-0,024486
693,000000	-0,024621
692,000000	-0,024428
691,000000	-0,024346
690,000000	-0,024149
689,000000	-0,024432
688,000000	-0,023989
687,000000	-0,023742
686,000000	-0,023865
685,000000	-0,023438
684,000000	-0,023397
683,000000	-0,023042
682,000000	-0,023018
681,000000	-0,022705
680,000000	-0,022589
679,000000	-0,022581
678,000000	-0,022783
677,000000	-0,022391
676,000000	-0,022494
675,000000	-0,022408
674,000000	-0,022313
673,000000	-0,022024
672,000000	-0,021954
671,000000	-0,022024
670,000000	-0,021954
669,000000	-0,021950
668,000000	-0,021619
667,000000	-0,021623
666,000000	-0,021309
665,000000	-0,021442
664,000000	-0,021375
663,000000	-0,021334
662,000000	-0,021260
661,000000	-0,021045
660,000000	-0,021090
659,000000	-0,020912
658,000000	-0,020747
657,000000	-0,020780
656,000000	-0,020788
655,000000	-0,020788
654,000000	-0,020747
653,000000	-0,020738
652,000000	-0,020378
651,000000	-0,020233
650,000000	-0,020440
649,000000	-0,020432
648,000000	-0,020200
647,000000	-0,020055
646,000000	-0,020249
645,000000	-0,020137
644,000000	-0,019772
643,000000	-0,019851
642,000000	-0,019760
641,000000	-0,019644
640,000000	-0,019449
639,000000	-0,019801
638,000000	-0,019710
637,000000	-0,019420
636,000000	-0,019557
635,000000	-0,019469
634,000000	-0,019677
633,000000	-0,019374
632,000000	-0,019287
631,000000	-0,019569
630,000000	-0,019137
629,000000	-0,019282
628,000000	-0,019141
627,000000	-0,019328
626,000000	-0,019050
625,000000	-0,019278
624,000000	-0,019382
623,000000	-0,019274
622,000000	-0,019274
621,000000	-0,019341
620,000000	-0,019561
619,000000	-0,019432
618,000000	-0,019212
617,000000	-0,019224
616,000000	-0,019249
615,000000	-0,019341
614,000000	-0,019087
613,000000	-0,019195
612,000000	-0,019058
611,000000	-0,019108
610,000000	-0,019366
609,000000	-0,019183
608,000000	-0,019183
607,000000	-0,019154
606,000000	-0,019191
605,000000	-0,019482
604,000000	-0,019262
603,000000	-0,019390
602,000000	-0,019382
601,000000	-0,019552
600,000000	-0,019353
599,000000	-0,019627
598,000000	-0,019540
597,000000	-0,019457
596,000000	-0,019528
595,000000	-0,019627
594,000000	-0,019444
593,000000	-0,019287
592,000000	-0,019552
591,000000	-0,019017
590,000000	-0,018759
589,000000	-0,018584
588,000000	-0,018205
587,000000	-0,017934
586,000000	-0,017167
585,000000	-0,017021
584,000000	-0,016812
583,000000	-0,016089
582,000000	-0,015590
581,000000	-0,015058
580,000000	-0,014961
579,000000	-0,014340
578,000000	-0,013861
577,000000	-0,013596
576,000000	-0,013179
575,000000	-0,012905
574,000000	-0,012470
573,000000	-0,012415
572,000000	-0,011959
571,000000	-0,011972
570,000000	-0,011887
569,000000	-0,011828
568,000000	-0,011511
567,000000	-0,011427
566,000000	-0,011562
565,000000	-0,011384
564,000000	-0,011097
563,000000	-0,011300
562,000000	-0,011240
561,000000	-0,010834
560,000000	-0,010792
559,000000	-0,011363
558,000000	-0,011515
557,000000	-0,011198
556,000000	-0,011384
555,000000	-0,011257
554,000000	-0,011109
553,000000	-0,011266
552,000000	-0,011401
551,000000	-0,011410
550,000000	-0,011410
549,000000	-0,011465
548,000000	-0,011680
547,000000	-0,011604
546,000000	-0,011490
545,000000	-0,011718
544,000000	-0,011575
543,000000	-0,011579
542,000000	-0,011655
541,000000	-0,011706
540,000000	-0,011964
539,000000	-0,011723
538,000000	-0,011723
537,000000	-0,011972
536,000000	-0,011663
535,000000	-0,012035
534,000000	-0,012171
533,000000	-0,011909
532,000000	-0,012073
531,000000	-0,012225
530,000000	-0,012204
529,000000	-0,011854
528,000000	-0,012120
527,000000	-0,012162
526,000000	-0,012111
525,000000	-0,012225
524,000000	-0,012225
523,000000	-0,012048
522,000000	-0,012082
521,000000	-0,012365
520,000000	-0,012479
519,000000	-0,012428
518,000000	-0,012204
517,000000	-0,012411
516,000000	-0,012373
515,000000	-0,012247
514,000000	-0,012213
513,000000	-0,012900
512,000000	-0,012968
511,000000	-0,012833
510,000000	-0,012723
509,000000	-0,013183
508,000000	-0,012938
507,000000	-0,013107
506,000000	-0,013318
505,000000	-0,013267
504,000000	-0,013722
503,000000	-0,013330
502,000000	-0,013726
501,000000	-0,013768
500,000000	-0,013739
499,000000	-0,013781
498,000000	-0,013697
497,000000	-0,014067
496,000000	-0,013953
495,000000	-0,014281
494,000000	-0,014424
493,000000	-0,014117
492,000000	-0,014306
491,000000	-0,014298
490,000000	-0,014718
489,000000	-0,014730
488,000000	-0,014689
487,000000	-0,014768
486,000000	-0,014726
485,000000	-0,014710
484,000000	-0,014701
483,000000	-0,015188
482,000000	-0,014974
481,000000	-0,014819
480,000000	-0,015209
479,000000	-0,015221
478,000000	-0,015200
477,000000	-0,015037
476,000000	-0,015138
475,000000	-0,014802
474,000000	-0,014924
473,000000	-0,014789
472,000000	-0,014810
471,000000	-0,014789
470,000000	-0,014432
469,000000	-0,014407
468,000000	-0,014466
467,000000	-0,014096
466,000000	-0,013776
465,000000	-0,013654
464,000000	-0,013406
463,000000	-0,012892
462,000000	-0,012884
461,000000	-0,012753
460,000000	-0,012622
459,000000	-0,012297
458,000000	-0,012276
457,000000	-0,012276
456,000000	-0,011625
455,000000	-0,011858
454,000000	-0,011756
453,000000	-0,011410
452,000000	-0,011532
451,000000	-0,011558
450,000000	-0,011549
449,000000	-0,011084
448,000000	-0,011130
447,000000	-0,011105
446,000000	-0,010520
445,000000	-0,010011
444,000000	-0,010075
443,000000	-0,009833
442,000000	-0,009897
441,000000	-0,009370
440,000000	-0,009468
439,000000	-0,009158
438,000000	-0,008553
437,000000	-0,008498
436,000000	-0,008349
435,000000	-0,007923
434,000000	-0,007667
433,000000	-0,008144
432,000000	-0,007918
431,000000	-0,007833
430,000000	-0,007714
429,000000	-0,007726
428,000000	-0,007206
427,000000	-0,007210
426,000000	-0,007492
425,000000	-0,007650
424,000000	-0,007603
423,000000	-0,007317
422,000000	-0,007884
421,000000	-0,007026
420,000000	-0,007052
419,000000	-0,007265
418,000000	-0,007321
417,000000	-0,007376
416,000000	-0,007462
415,000000	-0,007522
414,000000	-0,007714
413,000000	-0,007355
412,000000	-0,007598
411,000000	-0,007748
410,000000	-0,008021
409,000000	-0,007923
408,000000	-0,008068
407,000000	-0,008166
406,000000	-0,007931
405,000000	-0,008247
404,000000	-0,008144
403,000000	-0,008485
402,000000	-0,008362
401,000000	-0,008379
400,000000	-0,008690
399,000000	-0,008698
398,000000	-0,008604
397,000000	-0,008800
396,000000	-0,008843
395,000000	-0,008817
394,000000	-0,008885
393,000000	-0,009094
392,000000	-0,009153
391,000000	-0,009141
390,000000	-0,009251
