PE UV       SUBTECH     SPECTRUM    ASCII       PEDS        4.00        
   -1
19-22.Sample.Raw.asc
20/11/03
15:29:33.00
20/11/03
15:29:33.00
Analyst

390,000000
1
Lambda 25
501s11081509
PerkinElmer UV WinLab 6.0.3.0730 / Lambda25 1.27

480
2
1
0
0
Both on
1
1
1
None
0
0
0
0
 
 
0
0
0
0
0
 
 
 
0
 
0
326
0
 
0
 
 
 
0
0
0
 
0
 
 
 
0
 
 
0
0
0
0
0
 
 
 
 
0
0


#HDR
-1
-1
#GR
nm
A
1.0
0.0
700,000000
-1,000000
311
8
0,555459
0,029761
#DATA
700,000000	0,030179
699,000000	0,030008
698,000000	0,030235
697,000000	0,029761
696,000000	0,030403
695,000000	0,030606
694,000000	0,030450
693,000000	0,030995
692,000000	0,030811
691,000000	0,030976
690,000000	0,030907
689,000000	0,031534
688,000000	0,031373
687,000000	0,031361
686,000000	0,031754
685,000000	0,031614
684,000000	0,031940
683,000000	0,032313
682,000000	0,032271
681,000000	0,032352
680,000000	0,032624
679,000000	0,032629
678,000000	0,033413
677,000000	0,033191
676,000000	0,033525
675,000000	0,033577
674,000000	0,033691
673,000000	0,033817
672,000000	0,033783
671,000000	0,034014
670,000000	0,034515
669,000000	0,034596
668,000000	0,034248
667,000000	0,034950
666,000000	0,034784
665,000000	0,034988
664,000000	0,035348
663,000000	0,035432
662,000000	0,035685
661,000000	0,035874
660,000000	0,036027
659,000000	0,036173
658,000000	0,036354
657,000000	0,036653
656,000000	0,036657
655,000000	0,037040
654,000000	0,037332
653,000000	0,037581
652,000000	0,037460
651,000000	0,037812
650,000000	0,038087
649,000000	0,038301
648,000000	0,038399
647,000000	0,038548
646,000000	0,038947
645,000000	0,039580
644,000000	0,039215
643,000000	0,039743
642,000000	0,039679
641,000000	0,039854
640,000000	0,040055
639,000000	0,040690
638,000000	0,040699
637,000000	0,040897
636,000000	0,041499
635,000000	0,041572
634,000000	0,041958
633,000000	0,041874
632,000000	0,042300
631,000000	0,042793
630,000000	0,042393
629,000000	0,043125
628,000000	0,043241
627,000000	0,043680
626,000000	0,043554
625,000000	0,044201
624,000000	0,044719
623,000000	0,044744
622,000000	0,044855
621,000000	0,045299
620,000000	0,045796
619,000000	0,045704
618,000000	0,045872
617,000000	0,046586
616,000000	0,046769
615,000000	0,047249
614,000000	0,047195
613,000000	0,047924
612,000000	0,047768
611,000000	0,048222
610,000000	0,048982
609,000000	0,049013
608,000000	0,049548
607,000000	0,049691
606,000000	0,050046
605,000000	0,050500
604,000000	0,050522
603,000000	0,051015
602,000000	0,051413
601,000000	0,051593
600,000000	0,051777
599,000000	0,052576
598,000000	0,052784
597,000000	0,053043
596,000000	0,053217
595,000000	0,053706
594,000000	0,054139
593,000000	0,054052
592,000000	0,054756
591,000000	0,054898
590,000000	0,055415
589,000000	0,055760
588,000000	0,056101
587,000000	0,056637
586,000000	0,056316
585,000000	0,056755
584,000000	0,057546
583,000000	0,057725
582,000000	0,057906
581,000000	0,058213
580,000000	0,059153
579,000000	0,059037
578,000000	0,059362
577,000000	0,059899
576,000000	0,059975
575,000000	0,060742
574,000000	0,060900
573,000000	0,061433
572,000000	0,061814
571,000000	0,062085
570,000000	0,062512
569,000000	0,062941
568,000000	0,062981
567,000000	0,062984
566,000000	0,063736
565,000000	0,064009
564,000000	0,064384
563,000000	0,064661
562,000000	0,065093
561,000000	0,065242
560,000000	0,065762
559,000000	0,066644
558,000000	0,067132
557,000000	0,067209
556,000000	0,067934
555,000000	0,068114
554,000000	0,068283
553,000000	0,068836
552,000000	0,069329
551,000000	0,069893
550,000000	0,070356
549,000000	0,070470
548,000000	0,071164
547,000000	0,071636
546,000000	0,071996
545,000000	0,071950
544,000000	0,072525
543,000000	0,072759
542,000000	0,073355
541,000000	0,073867
540,000000	0,074441
539,000000	0,074636
538,000000	0,075184
537,000000	0,075649
536,000000	0,075889
535,000000	0,076800
534,000000	0,077082
533,000000	0,077208
532,000000	0,078267
531,000000	0,078819
530,000000	0,079391
529,000000	0,079446
528,000000	0,080469
527,000000	0,080984
526,000000	0,081218
525,000000	0,082265
524,000000	0,083011
523,000000	0,083601
522,000000	0,084116
521,000000	0,084994
520,000000	0,085915
519,000000	0,086307
518,000000	0,086676
517,000000	0,087548
516,000000	0,088202
515,000000	0,089199
514,000000	0,089669
513,000000	0,091120
512,000000	0,092198
511,000000	0,092574
510,000000	0,093290
509,000000	0,094833
508,000000	0,095102
507,000000	0,096427
506,000000	0,097833
505,000000	0,098527
504,000000	0,099828
503,000000	0,100423
502,000000	0,102259
501,000000	0,103096
500,000000	0,104156
499,000000	0,105355
498,000000	0,106613
497,000000	0,108131
496,000000	0,108859
495,000000	0,110518
494,000000	0,112285
493,000000	0,112773
492,000000	0,114180
491,000000	0,115310
490,000000	0,117366
489,000000	0,117934
488,000000	0,119736
487,000000	0,121228
486,000000	0,122760
485,000000	0,123836
484,000000	0,125108
483,000000	0,127166
482,000000	0,128117
481,000000	0,129508
480,000000	0,131315
479,000000	0,132538
478,000000	0,133993
477,000000	0,135305
476,000000	0,137110
475,000000	0,138134
474,000000	0,139480
473,000000	0,141079
472,000000	0,142293
471,000000	0,143795
470,000000	0,145101
469,000000	0,146221
468,000000	0,147736
467,000000	0,149146
466,000000	0,150311
465,000000	0,151535
464,000000	0,153032
463,000000	0,153910
462,000000	0,155509
461,000000	0,156925
460,000000	0,158602
459,000000	0,160348
458,000000	0,161930
457,000000	0,163878
456,000000	0,165264
455,000000	0,167480
454,000000	0,169441
453,000000	0,171028
452,000000	0,173269
451,000000	0,175430
450,000000	0,177886
449,000000	0,179976
448,000000	0,183186
447,000000	0,186160
446,000000	0,187483
445,000000	0,190283
444,000000	0,193171
443,000000	0,196152
442,000000	0,199295
441,000000	0,202912
440,000000	0,206797
439,000000	0,210286
438,000000	0,213891
437,000000	0,217453
436,000000	0,221243
435,000000	0,224312
434,000000	0,228344
433,000000	0,233102
432,000000	0,237560
431,000000	0,241926
430,000000	0,246922
429,000000	0,251844
428,000000	0,256250
427,000000	0,260482
426,000000	0,266293
425,000000	0,270735
424,000000	0,275700
423,000000	0,279946
422,000000	0,285884
421,000000	0,287181
420,000000	0,291776
419,000000	0,296624
418,000000	0,301748
417,000000	0,306085
416,000000	0,310677
415,000000	0,316016
414,000000	0,320836
413,000000	0,325680
412,000000	0,331445
411,000000	0,336603
410,000000	0,342130
409,000000	0,347579
408,000000	0,353727
407,000000	0,359767
406,000000	0,365338
405,000000	0,372040
404,000000	0,378073
403,000000	0,385588
402,000000	0,391750
401,000000	0,399649
400,000000	0,407945
399,000000	0,416588
398,000000	0,425168
397,000000	0,434746
396,000000	0,445979
395,000000	0,458993
394,000000	0,473047
393,000000	0,489148
392,000000	0,508601
391,000000	0,531108
390,000000	0,555459
