PE UV       SUBTECH     SPECTRUM    ASCII       PEDS        4.00        
   -1
19.Sample.Raw.asc
20/11/03
14:42:20.00
20/11/03
14:42:20.00
Analyst

390,000000
1
Lambda 25
501s11081509
PerkinElmer UV WinLab 6.0.3.0730 / Lambda25 1.27

480
2
1
0
0
Both on
1
1
1
None
0
0
0
0
 
 
0
0
0
0
0
 
 
 
0
 
0
326
0
 
0
 
 
 
0
0
0
 
0
 
 
 
0
 
 
0
0
0
0
0
 
 
 
 
0
0


#HDR
-1
-1
#GR
nm
A
1.0
0.0
700,000000
-1,000000
311
8
0,144859
0,006271
#DATA
700,000000	0,006739
699,000000	0,006466
698,000000	0,006649
697,000000	0,006476
696,000000	0,006594
695,000000	0,006522
694,000000	0,006518
693,000000	0,006641
692,000000	0,006669
691,000000	0,006437
690,000000	0,006623
689,000000	0,006965
688,000000	0,006626
687,000000	0,006529
686,000000	0,006707
685,000000	0,006505
684,000000	0,006271
683,000000	0,006787
682,000000	0,006766
681,000000	0,006549
680,000000	0,006534
679,000000	0,006794
678,000000	0,007054
677,000000	0,006705
676,000000	0,006783
675,000000	0,006989
674,000000	0,007104
673,000000	0,006534
672,000000	0,006875
671,000000	0,006899
670,000000	0,006854
669,000000	0,006854
668,000000	0,006973
667,000000	0,006855
666,000000	0,006495
665,000000	0,006896
664,000000	0,006834
663,000000	0,006919
662,000000	0,006689
661,000000	0,006822
660,000000	0,007023
659,000000	0,006639
658,000000	0,006617
657,000000	0,006810
656,000000	0,007142
655,000000	0,006797
654,000000	0,006701
653,000000	0,007341
652,000000	0,006728
651,000000	0,006789
650,000000	0,006912
649,000000	0,007203
648,000000	0,007042
647,000000	0,007036
646,000000	0,007319
645,000000	0,007207
644,000000	0,007007
643,000000	0,006778
642,000000	0,007281
641,000000	0,007296
640,000000	0,007126
639,000000	0,007310
638,000000	0,007232
637,000000	0,007207
636,000000	0,007188
635,000000	0,007341
634,000000	0,007498
633,000000	0,007284
632,000000	0,007027
631,000000	0,007403
630,000000	0,007305
629,000000	0,007340
628,000000	0,007304
627,000000	0,007551
626,000000	0,007336
625,000000	0,007454
624,000000	0,007613
623,000000	0,007645
622,000000	0,007471
621,000000	0,007732
620,000000	0,007863
619,000000	0,007828
618,000000	0,007434
617,000000	0,007476
616,000000	0,007801
615,000000	0,007931
614,000000	0,007665
613,000000	0,007578
612,000000	0,007623
611,000000	0,007736
610,000000	0,007863
609,000000	0,007735
608,000000	0,007879
607,000000	0,007871
606,000000	0,007650
605,000000	0,008246
604,000000	0,007839
603,000000	0,007807
602,000000	0,007879
601,000000	0,007897
600,000000	0,007884
599,000000	0,008019
598,000000	0,007847
597,000000	0,007764
596,000000	0,007708
595,000000	0,007968
594,000000	0,007620
593,000000	0,007839
592,000000	0,007935
591,000000	0,007806
590,000000	0,007899
589,000000	0,007945
588,000000	0,007901
587,000000	0,007842
586,000000	0,007606
585,000000	0,007617
584,000000	0,008050
583,000000	0,007897
582,000000	0,007881
581,000000	0,008121
580,000000	0,008170
579,000000	0,007904
578,000000	0,008071
577,000000	0,008200
576,000000	0,008020
575,000000	0,008171
574,000000	0,008467
573,000000	0,008503
572,000000	0,008490
571,000000	0,008365
570,000000	0,008427
569,000000	0,008501
568,000000	0,008167
567,000000	0,008307
566,000000	0,008278
565,000000	0,008213
564,000000	0,008248
563,000000	0,009021
562,000000	0,008509
561,000000	0,008150
560,000000	0,008375
559,000000	0,008804
558,000000	0,008762
557,000000	0,008648
556,000000	0,008920
555,000000	0,008694
554,000000	0,008645
553,000000	0,008784
552,000000	0,008846
551,000000	0,008794
550,000000	0,008760
549,000000	0,009074
548,000000	0,009126
547,000000	0,008993
546,000000	0,008642
545,000000	0,009082
544,000000	0,008834
543,000000	0,009059
542,000000	0,008785
541,000000	0,009026
540,000000	0,009249
539,000000	0,009064
538,000000	0,009228
537,000000	0,009400
536,000000	0,009096
535,000000	0,009153
534,000000	0,009439
533,000000	0,009207
532,000000	0,009501
531,000000	0,009502
530,000000	0,009395
529,000000	0,009519
528,000000	0,009548
527,000000	0,009771
526,000000	0,009824
525,000000	0,009757
524,000000	0,009748
523,000000	0,009567
522,000000	0,009808
521,000000	0,010255
520,000000	0,010053
519,000000	0,009908
518,000000	0,010207
517,000000	0,010275
516,000000	0,009663
515,000000	0,009972
514,000000	0,009921
513,000000	0,010562
512,000000	0,010793
511,000000	0,010455
510,000000	0,010544
509,000000	0,010481
508,000000	0,010181
507,000000	0,010777
506,000000	0,011026
505,000000	0,010643
504,000000	0,010994
503,000000	0,011000
502,000000	0,011357
501,000000	0,011062
500,000000	0,011145
499,000000	0,011239
498,000000	0,011198
497,000000	0,011382
496,000000	0,011545
495,000000	0,011817
494,000000	0,012180
493,000000	0,011437
492,000000	0,012106
491,000000	0,012063
490,000000	0,012293
489,000000	0,012435
488,000000	0,012376
487,000000	0,012477
486,000000	0,012647
485,000000	0,012479
484,000000	0,012903
483,000000	0,013294
482,000000	0,013119
481,000000	0,012960
480,000000	0,013657
479,000000	0,013639
478,000000	0,013787
477,000000	0,014004
476,000000	0,014261
475,000000	0,014103
474,000000	0,014355
473,000000	0,014533
472,000000	0,014754
471,000000	0,014481
470,000000	0,014949
469,000000	0,015103
468,000000	0,015771
467,000000	0,015811
466,000000	0,015683
465,000000	0,015932
464,000000	0,016208
463,000000	0,015965
462,000000	0,016547
461,000000	0,016692
460,000000	0,016776
459,000000	0,017211
458,000000	0,017708
457,000000	0,018034
456,000000	0,017801
455,000000	0,018625
454,000000	0,018642
453,000000	0,018525
452,000000	0,018873
451,000000	0,019154
450,000000	0,019491
449,000000	0,019703
448,000000	0,020055
447,000000	0,021175
446,000000	0,020755
445,000000	0,020673
444,000000	0,021320
443,000000	0,021627
442,000000	0,022302
441,000000	0,022531
440,000000	0,023144
439,000000	0,023574
438,000000	0,023365
437,000000	0,024097
436,000000	0,024389
435,000000	0,024797
434,000000	0,024848
433,000000	0,026050
432,000000	0,026168
431,000000	0,027053
430,000000	0,027524
429,000000	0,028005
428,000000	0,028286
427,000000	0,028961
426,000000	0,029649
425,000000	0,030516
424,000000	0,031225
423,000000	0,031517
422,000000	0,032770
421,000000	0,032395
420,000000	0,033250
419,000000	0,034082
418,000000	0,035239
417,000000	0,036105
416,000000	0,037296
415,000000	0,038432
414,000000	0,039782
413,000000	0,040725
412,000000	0,042091
411,000000	0,043757
410,000000	0,045476
409,000000	0,047124
408,000000	0,048840
407,000000	0,050578
406,000000	0,051936
405,000000	0,054081
404,000000	0,055817
403,000000	0,057459
402,000000	0,059738
401,000000	0,061809
400,000000	0,064138
399,000000	0,067062
398,000000	0,069770
397,000000	0,073742
396,000000	0,078128
395,000000	0,083495
394,000000	0,091028
393,000000	0,100078
392,000000	0,112197
391,000000	0,126912
390,000000	0,144859
