PE UV       SUBTECH     SPECTRUM    ASCII       PEDS        4.00        
   -1
24.Sample.Raw.asc
20/11/03
14:46:28.00
20/11/03
14:46:28.00
Analyst

390,000000
1
Lambda 25
501s11081509
PerkinElmer UV WinLab 6.0.3.0730 / Lambda25 1.27

480
2
1
0
0
Both on
1
1
1
None
0
0
0
0
 
 
0
0
0
0
0
 
 
 
0
 
0
326
0
 
0
 
 
 
0
0
0
 
0
 
 
 
0
 
 
0
0
0
0
0
 
 
 
 
0
0


#HDR
-1
-1
#GR
nm
A
1.0
0.0
700,000000
-1,000000
311
8
0,029880
0,006976
#DATA
700,000000	0,007346
699,000000	0,007198
698,000000	0,007199
697,000000	0,006976
696,000000	0,007290
695,000000	0,007326
694,000000	0,007285
693,000000	0,007412
692,000000	0,007395
691,000000	0,007609
690,000000	0,007262
689,000000	0,007767
688,000000	0,007666
687,000000	0,007344
686,000000	0,007568
685,000000	0,007307
684,000000	0,007270
683,000000	0,007813
682,000000	0,007788
681,000000	0,007974
680,000000	0,007901
679,000000	0,007926
678,000000	0,008170
677,000000	0,007757
676,000000	0,008175
675,000000	0,008047
674,000000	0,008288
673,000000	0,008092
672,000000	0,008257
671,000000	0,008214
670,000000	0,008194
669,000000	0,008405
668,000000	0,008083
667,000000	0,008217
666,000000	0,007949
665,000000	0,008335
664,000000	0,008445
663,000000	0,008160
662,000000	0,008338
661,000000	0,008131
660,000000	0,008392
659,000000	0,008045
658,000000	0,008243
657,000000	0,008373
656,000000	0,008305
655,000000	0,008508
654,000000	0,008796
653,000000	0,008686
652,000000	0,008478
651,000000	0,008227
650,000000	0,008827
649,000000	0,008827
648,000000	0,008617
647,000000	0,008083
646,000000	0,009106
645,000000	0,008893
644,000000	0,008553
643,000000	0,008831
642,000000	0,008956
641,000000	0,008776
640,000000	0,008682
639,000000	0,009031
638,000000	0,009219
637,000000	0,008975
636,000000	0,009218
635,000000	0,009013
634,000000	0,009729
633,000000	0,008968
632,000000	0,009076
631,000000	0,009392
630,000000	0,008901
629,000000	0,009246
628,000000	0,009096
627,000000	0,009656
626,000000	0,009021
625,000000	0,009157
624,000000	0,009545
623,000000	0,009318
622,000000	0,009479
621,000000	0,009452
620,000000	0,009910
619,000000	0,009730
618,000000	0,009519
617,000000	0,009659
616,000000	0,009837
615,000000	0,009762
614,000000	0,009398
613,000000	0,009846
612,000000	0,009930
611,000000	0,009768
610,000000	0,010140
609,000000	0,009923
608,000000	0,010446
607,000000	0,010128
606,000000	0,010012
605,000000	0,010371
604,000000	0,010381
603,000000	0,010063
602,000000	0,010259
601,000000	0,010518
600,000000	0,010344
599,000000	0,010559
598,000000	0,010608
597,000000	0,010538
596,000000	0,010429
595,000000	0,010457
594,000000	0,010546
593,000000	0,010469
592,000000	0,010986
591,000000	0,010553
590,000000	0,010666
589,000000	0,011071
588,000000	0,010624
587,000000	0,011101
586,000000	0,010658
585,000000	0,010722
584,000000	0,010988
583,000000	0,011050
582,000000	0,010998
581,000000	0,010861
580,000000	0,011471
579,000000	0,011207
578,000000	0,011125
577,000000	0,011265
576,000000	0,011354
575,000000	0,011656
574,000000	0,011876
573,000000	0,011773
572,000000	0,011747
571,000000	0,011998
570,000000	0,011966
569,000000	0,011946
568,000000	0,011876
567,000000	0,011522
566,000000	0,012053
565,000000	0,012080
564,000000	0,012092
563,000000	0,012452
562,000000	0,012232
561,000000	0,011939
560,000000	0,012053
559,000000	0,012529
558,000000	0,012502
557,000000	0,012089
556,000000	0,012654
555,000000	0,012497
554,000000	0,012279
553,000000	0,012484
552,000000	0,012893
551,000000	0,012985
550,000000	0,012641
549,000000	0,012800
548,000000	0,013033
547,000000	0,013001
546,000000	0,012760
545,000000	0,013015
544,000000	0,013010
543,000000	0,013019
542,000000	0,012860
541,000000	0,013294
540,000000	0,013621
539,000000	0,013241
538,000000	0,013228
537,000000	0,013643
536,000000	0,013125
535,000000	0,013728
534,000000	0,013859
533,000000	0,013754
532,000000	0,013744
531,000000	0,013822
530,000000	0,014180
529,000000	0,013782
528,000000	0,014092
527,000000	0,014164
526,000000	0,014323
525,000000	0,014250
524,000000	0,014394
523,000000	0,014386
522,000000	0,014473
521,000000	0,014891
520,000000	0,014691
519,000000	0,014675
518,000000	0,014573
517,000000	0,014627
516,000000	0,014821
515,000000	0,014633
514,000000	0,014726
513,000000	0,015370
512,000000	0,015184
511,000000	0,015119
510,000000	0,014865
509,000000	0,015417
508,000000	0,015229
507,000000	0,015476
506,000000	0,015630
505,000000	0,015331
504,000000	0,015746
503,000000	0,015551
502,000000	0,015842
501,000000	0,015836
500,000000	0,015898
499,000000	0,016097
498,000000	0,015904
497,000000	0,016497
496,000000	0,016335
495,000000	0,016550
494,000000	0,016418
493,000000	0,016285
492,000000	0,016549
491,000000	0,016776
490,000000	0,017035
489,000000	0,016929
488,000000	0,017272
487,000000	0,017059
486,000000	0,017082
485,000000	0,017183
484,000000	0,017061
483,000000	0,017819
482,000000	0,017395
481,000000	0,017319
480,000000	0,017862
479,000000	0,017778
478,000000	0,017880
477,000000	0,017930
476,000000	0,018350
475,000000	0,017953
474,000000	0,018368
473,000000	0,018199
472,000000	0,018557
471,000000	0,018738
470,000000	0,018267
469,000000	0,018474
468,000000	0,019041
467,000000	0,018939
466,000000	0,019143
465,000000	0,019483
464,000000	0,019595
463,000000	0,019015
462,000000	0,019531
461,000000	0,019555
460,000000	0,019592
459,000000	0,019655
458,000000	0,020257
457,000000	0,020147
456,000000	0,020320
455,000000	0,020583
454,000000	0,020553
453,000000	0,020099
452,000000	0,020395
451,000000	0,020651
450,000000	0,020988
449,000000	0,021065
448,000000	0,021307
447,000000	0,021700
446,000000	0,021320
445,000000	0,021065
444,000000	0,021128
443,000000	0,021475
442,000000	0,022030
441,000000	0,021789
440,000000	0,022128
439,000000	0,022471
438,000000	0,022082
437,000000	0,022246
436,000000	0,022828
435,000000	0,022968
434,000000	0,022757
433,000000	0,022637
432,000000	0,023418
431,000000	0,023616
430,000000	0,023168
429,000000	0,023600
428,000000	0,023440
427,000000	0,023913
426,000000	0,024226
425,000000	0,024475
424,000000	0,024658
423,000000	0,024584
422,000000	0,025405
421,000000	0,023946
420,000000	0,024125
419,000000	0,024375
418,000000	0,024485
417,000000	0,024649
416,000000	0,024933
415,000000	0,024848
414,000000	0,025167
413,000000	0,025152
412,000000	0,025259
411,000000	0,025350
410,000000	0,025935
409,000000	0,025823
408,000000	0,025919
407,000000	0,026533
406,000000	0,026171
405,000000	0,026437
404,000000	0,026312
403,000000	0,026988
402,000000	0,027123
401,000000	0,027281
400,000000	0,028041
399,000000	0,027768
398,000000	0,027956
397,000000	0,028115
396,000000	0,028199
395,000000	0,028328
394,000000	0,028723
393,000000	0,029245
392,000000	0,029164
391,000000	0,029528
390,000000	0,029880
