PE UV       SUBTECH     SPECTRUM    ASCII       PEDS        4.00        
   -1
35.Sample.Raw.asc
20/11/03
14:36:11.00
20/11/03
14:36:11.00
Analyst

390,000000
1
Lambda 25
501s11081509
PerkinElmer UV WinLab 6.0.3.0730 / Lambda25 1.27

480
2
1
0
0
Both on
1
1
1
None
0
0
0
0
 
 
0
0
0
0
0
 
 
 
0
 
0
326
0
 
0
 
 
 
0
0
0
 
0
 
 
 
0
 
 
0
0
0
0
0
 
 
 
 
0
0


#HDR
-1
-1
#GR
nm
A
1.0
0.0
700,000000
-1,000000
311
8
1,753820
0,002889
#DATA
700,000000	0,003263
699,000000	0,003287
698,000000	0,003353
697,000000	0,002889
696,000000	0,003367
695,000000	0,003493
694,000000	0,003296
693,000000	0,003424
692,000000	0,003413
691,000000	0,003463
690,000000	0,003365
689,000000	0,003740
688,000000	0,003516
687,000000	0,003368
686,000000	0,003421
685,000000	0,003201
684,000000	0,003247
683,000000	0,003556
682,000000	0,003606
681,000000	0,003339
680,000000	0,003739
679,000000	0,003602
678,000000	0,003862
677,000000	0,003886
676,000000	0,003856
675,000000	0,003711
674,000000	0,003924
673,000000	0,003736
672,000000	0,003803
671,000000	0,003715
670,000000	0,004036
669,000000	0,003986
668,000000	0,003768
667,000000	0,003943
666,000000	0,003721
665,000000	0,003795
664,000000	0,003862
663,000000	0,003896
662,000000	0,003780
661,000000	0,003944
660,000000	0,003906
659,000000	0,003787
658,000000	0,003738
657,000000	0,004026
656,000000	0,004114
655,000000	0,004022
654,000000	0,004181
653,000000	0,004369
652,000000	0,003858
651,000000	0,003998
650,000000	0,004305
649,000000	0,004109
648,000000	0,004002
647,000000	0,004079
646,000000	0,004236
645,000000	0,004237
644,000000	0,004300
643,000000	0,004219
642,000000	0,004404
641,000000	0,004171
640,000000	0,004164
639,000000	0,004303
638,000000	0,004325
637,000000	0,004186
636,000000	0,004331
635,000000	0,004634
634,000000	0,004682
633,000000	0,004333
632,000000	0,004460
631,000000	0,004532
630,000000	0,004100
629,000000	0,004267
628,000000	0,004381
627,000000	0,004417
626,000000	0,004529
625,000000	0,004783
624,000000	0,004706
623,000000	0,004519
622,000000	0,004304
621,000000	0,004812
620,000000	0,004734
619,000000	0,004588
618,000000	0,004385
617,000000	0,004763
616,000000	0,004725
615,000000	0,004761
614,000000	0,004819
613,000000	0,004763
612,000000	0,004567
611,000000	0,004734
610,000000	0,004929
609,000000	0,005057
608,000000	0,004763
607,000000	0,004826
606,000000	0,004931
605,000000	0,005197
604,000000	0,004821
603,000000	0,005046
602,000000	0,005110
601,000000	0,005057
600,000000	0,005026
599,000000	0,005178
598,000000	0,005116
597,000000	0,005012
596,000000	0,005028
595,000000	0,005296
594,000000	0,005134
593,000000	0,005228
592,000000	0,005406
591,000000	0,005185
590,000000	0,005121
589,000000	0,005426
588,000000	0,005288
587,000000	0,005291
586,000000	0,004963
585,000000	0,005260
584,000000	0,005288
583,000000	0,005352
582,000000	0,005044
581,000000	0,005237
580,000000	0,005557
579,000000	0,005280
578,000000	0,005495
577,000000	0,005583
576,000000	0,005798
575,000000	0,005921
574,000000	0,005970
573,000000	0,005864
572,000000	0,005438
571,000000	0,005985
570,000000	0,006077
569,000000	0,006099
568,000000	0,005893
567,000000	0,005599
566,000000	0,006133
565,000000	0,006157
564,000000	0,006092
563,000000	0,006025
562,000000	0,006330
561,000000	0,005963
560,000000	0,006118
559,000000	0,006874
558,000000	0,007052
557,000000	0,006795
556,000000	0,006852
555,000000	0,006816
554,000000	0,006702
553,000000	0,006777
552,000000	0,006886
551,000000	0,007226
550,000000	0,007179
549,000000	0,007139
548,000000	0,007445
547,000000	0,007313
546,000000	0,006924
545,000000	0,007212
544,000000	0,007004
543,000000	0,007391
542,000000	0,007463
541,000000	0,007290
540,000000	0,007741
539,000000	0,007560
538,000000	0,007345
537,000000	0,007612
536,000000	0,007510
535,000000	0,007882
534,000000	0,007918
533,000000	0,007781
532,000000	0,007885
531,000000	0,008012
530,000000	0,008201
529,000000	0,007825
528,000000	0,008319
527,000000	0,008137
526,000000	0,008362
525,000000	0,008519
524,000000	0,008528
523,000000	0,008480
522,000000	0,008583
521,000000	0,008676
520,000000	0,008695
519,000000	0,008968
518,000000	0,008787
517,000000	0,009140
516,000000	0,009132
515,000000	0,008963
514,000000	0,009119
513,000000	0,009677
512,000000	0,009775
511,000000	0,009480
510,000000	0,009724
509,000000	0,010028
508,000000	0,010138
507,000000	0,010276
506,000000	0,010538
505,000000	0,010440
504,000000	0,010960
503,000000	0,010814
502,000000	0,011322
501,000000	0,011542
500,000000	0,011815
499,000000	0,012333
498,000000	0,012443
497,000000	0,013221
496,000000	0,013623
495,000000	0,014798
494,000000	0,015441
493,000000	0,015936
492,000000	0,016929
491,000000	0,018018
490,000000	0,019285
489,000000	0,021118
488,000000	0,022931
487,000000	0,025154
486,000000	0,027543
485,000000	0,030664
484,000000	0,034003
483,000000	0,038558
482,000000	0,042970
481,000000	0,048123
480,000000	0,054809
479,000000	0,062114
478,000000	0,070792
477,000000	0,080943
476,000000	0,092080
475,000000	0,106403
474,000000	0,120918
473,000000	0,137625
472,000000	0,157478
471,000000	0,180197
470,000000	0,206512
469,000000	0,236640
468,000000	0,270995
467,000000	0,308532
466,000000	0,351302
465,000000	0,399074
464,000000	0,450032
463,000000	0,507539
462,000000	0,571880
461,000000	0,640762
460,000000	0,714840
459,000000	0,796712
458,000000	0,883909
457,000000	0,975368
456,000000	1,069072
455,000000	1,154103
454,000000	1,240537
453,000000	1,319975
452,000000	1,396214
451,000000	1,466127
450,000000	1,525402
449,000000	1,579399
448,000000	1,626240
447,000000	1,656420
446,000000	1,684594
445,000000	1,701661
444,000000	1,708177
443,000000	1,720690
442,000000	1,728182
441,000000	1,730388
440,000000	1,731630
439,000000	1,738712
438,000000	1,734627
437,000000	1,743208
436,000000	1,745423
435,000000	1,731691
434,000000	1,733278
433,000000	1,741442
432,000000	1,745467
431,000000	1,735991
430,000000	1,747642
429,000000	1,744090
428,000000	1,745229
427,000000	1,734440
426,000000	1,731950
425,000000	1,745436
424,000000	1,732061
423,000000	1,735707
422,000000	1,753820
421,000000	1,504190
420,000000	1,492504
419,000000	1,489806
418,000000	1,488281
417,000000	1,486369
416,000000	1,483196
415,000000	1,480537
414,000000	1,478155
413,000000	1,474601
412,000000	1,473953
411,000000	1,467418
410,000000	1,467566
409,000000	1,464848
408,000000	1,463132
407,000000	1,456594
406,000000	1,452232
405,000000	1,451462
404,000000	1,447999
403,000000	1,441224
402,000000	1,437235
401,000000	1,436204
400,000000	1,431888
399,000000	1,429830
398,000000	1,422130
397,000000	1,421314
396,000000	1,415335
395,000000	1,407083
394,000000	1,406934
393,000000	1,404652
392,000000	1,396264
391,000000	1,391092
390,000000	1,387244
