PE UV       SUBTECH     SPECTRUM    ASCII       PEDS        4.00        
   -1
36.Sample.Raw.asc
20/11/03
14:54:19.00
20/11/03
14:54:19.00
Analyst

390,000000
1
Lambda 25
501s11081509
PerkinElmer UV WinLab 6.0.3.0730 / Lambda25 1.27

480
2
1
0
0
Both on
1
1
1
None
0
0
0
0
 
 
0
0
0
0
0
 
 
 
0
 
0
326
0
 
0
 
 
 
0
0
0
 
0
 
 
 
0
 
 
0
0
0
0
0
 
 
 
 
0
0


#HDR
-1
-1
#GR
nm
A
1.0
0.0
700,000000
-1,000000
311
8
0,009725
0,000460
#DATA
700,000000	0,001522
699,000000	0,001433
698,000000	0,001453
697,000000	0,001105
696,000000	0,001734
695,000000	0,001533
694,000000	0,001328
693,000000	0,001694
692,000000	0,001674
691,000000	0,001646
690,000000	0,001325
689,000000	0,001765
688,000000	0,001564
687,000000	0,001367
686,000000	0,001408
685,000000	0,001216
684,000000	0,001117
683,000000	0,001270
682,000000	0,001270
681,000000	0,001073
680,000000	0,000999
679,000000	0,001148
678,000000	0,001300
677,000000	0,001347
676,000000	0,001363
675,000000	0,001099
674,000000	0,001132
673,000000	0,001141
672,000000	0,001166
671,000000	0,000942
670,000000	0,001058
669,000000	0,001294
668,000000	0,000906
667,000000	0,001171
666,000000	0,000650
665,000000	0,001229
664,000000	0,000803
663,000000	0,001047
662,000000	0,000911
661,000000	0,000460
660,000000	0,000733
659,000000	0,000534
658,000000	0,000762
657,000000	0,000949
656,000000	0,000982
655,000000	0,000746
654,000000	0,001007
653,000000	0,001124
652,000000	0,000589
651,000000	0,000618
650,000000	0,000850
649,000000	0,001133
648,000000	0,000805
647,000000	0,000951
646,000000	0,001129
645,000000	0,000888
644,000000	0,000714
643,000000	0,000735
642,000000	0,000914
641,000000	0,000760
640,000000	0,000644
639,000000	0,001446
638,000000	0,000935
637,000000	0,000848
636,000000	0,000973
635,000000	0,001077
634,000000	0,001060
633,000000	0,000856
632,000000	0,000807
631,000000	0,001226
630,000000	0,000832
629,000000	0,000715
628,000000	0,000815
627,000000	0,000902
626,000000	0,000682
625,000000	0,001069
624,000000	0,001173
623,000000	0,001052
622,000000	0,001002
621,000000	0,001115
620,000000	0,001372
619,000000	0,001056
618,000000	0,000998
617,000000	0,000932
616,000000	0,001348
615,000000	0,001235
614,000000	0,000986
613,000000	0,001253
612,000000	0,001320
611,000000	0,001132
610,000000	0,001281
609,000000	0,001223
608,000000	0,001203
607,000000	0,001153
606,000000	0,001340
605,000000	0,001435
604,000000	0,001373
603,000000	0,001219
602,000000	0,001302
601,000000	0,001251
600,000000	0,001277
599,000000	0,001443
598,000000	0,001443
597,000000	0,001485
596,000000	0,001327
595,000000	0,001584
594,000000	0,001539
593,000000	0,001244
592,000000	0,001606
591,000000	0,001111
590,000000	0,001379
589,000000	0,001217
588,000000	0,001523
587,000000	0,001482
586,000000	0,001237
585,000000	0,001297
584,000000	0,001444
583,000000	0,001341
582,000000	0,001402
581,000000	0,001454
580,000000	0,001555
579,000000	0,001326
578,000000	0,001720
577,000000	0,001395
576,000000	0,001511
575,000000	0,001681
574,000000	0,001818
573,000000	0,002166
572,000000	0,001553
571,000000	0,001986
570,000000	0,001732
569,000000	0,001859
568,000000	0,001491
567,000000	0,001746
566,000000	0,001729
565,000000	0,001806
564,000000	0,001599
563,000000	0,001934
562,000000	0,001892
561,000000	0,001523
560,000000	0,001757
559,000000	0,002150
558,000000	0,001907
557,000000	0,001501
556,000000	0,001802
555,000000	0,001764
554,000000	0,001637
553,000000	0,001777
552,000000	0,002133
551,000000	0,002159
550,000000	0,001776
549,000000	0,002192
548,000000	0,002115
547,000000	0,001937
546,000000	0,001869
545,000000	0,002153
544,000000	0,001826
543,000000	0,001899
542,000000	0,001949
541,000000	0,001847
540,000000	0,002640
539,000000	0,001936
538,000000	0,001987
537,000000	0,002181
536,000000	0,001801
535,000000	0,002088
534,000000	0,002235
533,000000	0,002075
532,000000	0,002147
531,000000	0,002286
530,000000	0,002609
529,000000	0,002071
528,000000	0,002202
527,000000	0,002282
526,000000	0,002414
525,000000	0,002558
524,000000	0,002541
523,000000	0,002402
522,000000	0,002482
521,000000	0,002714
520,000000	0,002675
519,000000	0,002582
518,000000	0,002316
517,000000	0,002646
516,000000	0,002408
515,000000	0,002469
514,000000	0,002414
513,000000	0,002944
512,000000	0,002990
511,000000	0,002575
510,000000	0,002810
509,000000	0,002896
508,000000	0,002694
507,000000	0,002743
506,000000	0,002852
505,000000	0,002738
504,000000	0,003023
503,000000	0,002793
502,000000	0,003108
501,000000	0,002765
500,000000	0,002998
499,000000	0,002993
498,000000	0,002727
497,000000	0,003144
496,000000	0,002789
495,000000	0,003214
494,000000	0,003421
493,000000	0,002982
492,000000	0,003299
491,000000	0,003108
490,000000	0,003274
489,000000	0,003283
488,000000	0,003330
487,000000	0,003265
486,000000	0,003080
485,000000	0,003135
484,000000	0,003266
483,000000	0,003702
482,000000	0,003205
481,000000	0,003185
480,000000	0,003638
479,000000	0,003681
478,000000	0,003482
477,000000	0,003733
476,000000	0,003766
475,000000	0,003418
474,000000	0,003345
473,000000	0,003468
472,000000	0,004052
471,000000	0,003570
470,000000	0,003649
469,000000	0,003806
468,000000	0,003861
467,000000	0,003839
466,000000	0,003587
465,000000	0,004042
464,000000	0,004015
463,000000	0,003688
462,000000	0,004134
461,000000	0,004315
460,000000	0,004269
459,000000	0,004208
458,000000	0,004345
457,000000	0,004503
456,000000	0,004078
455,000000	0,004400
454,000000	0,004448
453,000000	0,004268
452,000000	0,004532
451,000000	0,005045
450,000000	0,004596
449,000000	0,004622
448,000000	0,004707
447,000000	0,005423
446,000000	0,005220
445,000000	0,004767
444,000000	0,004903
443,000000	0,005529
442,000000	0,005859
441,000000	0,005686
440,000000	0,005865
439,000000	0,006258
438,000000	0,006011
437,000000	0,006574
436,000000	0,006503
435,000000	0,006557
434,000000	0,006600
433,000000	0,007346
432,000000	0,007137
431,000000	0,007312
430,000000	0,007336
429,000000	0,007731
428,000000	0,007949
427,000000	0,007888
426,000000	0,008444
425,000000	0,008554
424,000000	0,008564
423,000000	0,008587
422,000000	0,009259
421,000000	0,008327
420,000000	0,008470
419,000000	0,008518
418,000000	0,008691
417,000000	0,008886
416,000000	0,009111
415,000000	0,008962
414,000000	0,009219
413,000000	0,008961
412,000000	0,009226
411,000000	0,009336
410,000000	0,009504
409,000000	0,009354
408,000000	0,009569
407,000000	0,009531
406,000000	0,009576
405,000000	0,009408
404,000000	0,009388
403,000000	0,009725
402,000000	0,009275
401,000000	0,009570
400,000000	0,009624
399,000000	0,009620
398,000000	0,009352
397,000000	0,009596
396,000000	0,009429
395,000000	0,009530
394,000000	0,009585
393,000000	0,009124
392,000000	0,009218
391,000000	0,009232
390,000000	0,009407
