PE UV       SUBTECH     SPECTRUM    ASCII       PEDS        4.00        
   -1
47.Sample.Raw.asc
20/11/03
15:00:45.00
20/11/03
15:00:45.00
Analyst

390,000000
1
Lambda 25
501s11081509
PerkinElmer UV WinLab 6.0.3.0730 / Lambda25 1.27

480
2
1
0
0
Both on
1
1
1
None
0
0
0
0
 
 
0
0
0
0
0
 
 
 
0
 
0
326
0
 
0
 
 
 
0
0
0
 
0
 
 
 
0
 
 
0
0
0
0
0
 
 
 
 
0
0


#HDR
-1
-1
#GR
nm
A
1.0
0.0
700,000000
-1,000000
311
8
0,111130
0,047223
#DATA
700,000000	0,047356
699,000000	0,047271
698,000000	0,047618
697,000000	0,047223
696,000000	0,047774
695,000000	0,047801
694,000000	0,047879
693,000000	0,048184
692,000000	0,048019
691,000000	0,048047
690,000000	0,048070
689,000000	0,048684
688,000000	0,048290
687,000000	0,048237
686,000000	0,048571
685,000000	0,048415
684,000000	0,048471
683,000000	0,048770
682,000000	0,049078
681,000000	0,048838
680,000000	0,049000
679,000000	0,049019
678,000000	0,049456
677,000000	0,049111
676,000000	0,049658
675,000000	0,049835
674,000000	0,050031
673,000000	0,049826
672,000000	0,049867
671,000000	0,050178
670,000000	0,050390
669,000000	0,050192
668,000000	0,050269
667,000000	0,050696
666,000000	0,050219
665,000000	0,050760
664,000000	0,050787
663,000000	0,051262
662,000000	0,050964
661,000000	0,050912
660,000000	0,051474
659,000000	0,051394
658,000000	0,051531
657,000000	0,051699
656,000000	0,051829
655,000000	0,052137
654,000000	0,052039
653,000000	0,052274
652,000000	0,052072
651,000000	0,052044
650,000000	0,052354
649,000000	0,052856
648,000000	0,053012
647,000000	0,052736
646,000000	0,053118
645,000000	0,053301
644,000000	0,052899
643,000000	0,053151
642,000000	0,053121
641,000000	0,053601
640,000000	0,053617
639,000000	0,054224
638,000000	0,053958
637,000000	0,054006
636,000000	0,054298
635,000000	0,054202
634,000000	0,054499
633,000000	0,054346
632,000000	0,054589
631,000000	0,054711
630,000000	0,054731
629,000000	0,055122
628,000000	0,055070
627,000000	0,055366
626,000000	0,055059
625,000000	0,055571
624,000000	0,055849
623,000000	0,055661
622,000000	0,055930
621,000000	0,056105
620,000000	0,056482
619,000000	0,056145
618,000000	0,056469
617,000000	0,056632
616,000000	0,056620
615,000000	0,057009
614,000000	0,056912
613,000000	0,057243
612,000000	0,057272
611,000000	0,057412
610,000000	0,057693
609,000000	0,057914
608,000000	0,057885
607,000000	0,057799
606,000000	0,058354
605,000000	0,058498
604,000000	0,058311
603,000000	0,058440
602,000000	0,058759
601,000000	0,059096
600,000000	0,058621
599,000000	0,059380
598,000000	0,059355
597,000000	0,059400
596,000000	0,059404
595,000000	0,059856
594,000000	0,059764
593,000000	0,059725
592,000000	0,060425
591,000000	0,060114
590,000000	0,060391
589,000000	0,060379
588,000000	0,060512
587,000000	0,060940
586,000000	0,060514
585,000000	0,060790
584,000000	0,061119
583,000000	0,061200
582,000000	0,061082
581,000000	0,061066
580,000000	0,061956
579,000000	0,061824
578,000000	0,062004
577,000000	0,062292
576,000000	0,062639
575,000000	0,062817
574,000000	0,062900
573,000000	0,063416
572,000000	0,063263
571,000000	0,063823
570,000000	0,063607
569,000000	0,063880
568,000000	0,063739
567,000000	0,064013
566,000000	0,064315
565,000000	0,064260
564,000000	0,064394
563,000000	0,064739
562,000000	0,064818
561,000000	0,064991
560,000000	0,065318
559,000000	0,065584
558,000000	0,065884
557,000000	0,065986
556,000000	0,066473
555,000000	0,066390
554,000000	0,066553
553,000000	0,067010
552,000000	0,066968
551,000000	0,067041
550,000000	0,067337
549,000000	0,067683
548,000000	0,067963
547,000000	0,068075
546,000000	0,067822
545,000000	0,068486
544,000000	0,068521
543,000000	0,068218
542,000000	0,068844
541,000000	0,068756
540,000000	0,069053
539,000000	0,069055
538,000000	0,069263
537,000000	0,069875
536,000000	0,069596
535,000000	0,070117
534,000000	0,070187
533,000000	0,070397
532,000000	0,070388
531,000000	0,071062
530,000000	0,071339
529,000000	0,071073
528,000000	0,071344
527,000000	0,071730
526,000000	0,072013
525,000000	0,071953
524,000000	0,072392
523,000000	0,072664
522,000000	0,072767
521,000000	0,073075
520,000000	0,073389
519,000000	0,073653
518,000000	0,073289
517,000000	0,073736
516,000000	0,074014
515,000000	0,074052
514,000000	0,074499
513,000000	0,074931
512,000000	0,075305
511,000000	0,075245
510,000000	0,075070
509,000000	0,075685
508,000000	0,075561
507,000000	0,075945
506,000000	0,076437
505,000000	0,076472
504,000000	0,077057
503,000000	0,076952
502,000000	0,077283
501,000000	0,077264
500,000000	0,077667
499,000000	0,077800
498,000000	0,077862
497,000000	0,078459
496,000000	0,078849
495,000000	0,078895
494,000000	0,079451
493,000000	0,079159
492,000000	0,079576
491,000000	0,079658
490,000000	0,079906
489,000000	0,080257
488,000000	0,080645
487,000000	0,080558
486,000000	0,080779
485,000000	0,080989
484,000000	0,081447
483,000000	0,081807
482,000000	0,081689
481,000000	0,082066
480,000000	0,082436
479,000000	0,082717
478,000000	0,082940
477,000000	0,083274
476,000000	0,083578
475,000000	0,083451
474,000000	0,083796
473,000000	0,083927
472,000000	0,084493
471,000000	0,084661
470,000000	0,084687
469,000000	0,085346
468,000000	0,085635
467,000000	0,085654
466,000000	0,085770
465,000000	0,086618
464,000000	0,086714
463,000000	0,086699
462,000000	0,087504
461,000000	0,087776
460,000000	0,088136
459,000000	0,088023
458,000000	0,088644
457,000000	0,089276
456,000000	0,089019
455,000000	0,089683
454,000000	0,090138
453,000000	0,089822
452,000000	0,090257
451,000000	0,090777
450,000000	0,090894
449,000000	0,090971
448,000000	0,091545
447,000000	0,092310
446,000000	0,092044
445,000000	0,092301
444,000000	0,092701
443,000000	0,092948
442,000000	0,093711
441,000000	0,093649
440,000000	0,094163
439,000000	0,094524
438,000000	0,094464
437,000000	0,095251
436,000000	0,095336
435,000000	0,095605
434,000000	0,095354
433,000000	0,096726
432,000000	0,096564
431,000000	0,096745
430,000000	0,097789
429,000000	0,097668
428,000000	0,097596
427,000000	0,097879
426,000000	0,098541
425,000000	0,098977
424,000000	0,099252
423,000000	0,099438
422,000000	0,100355
421,000000	0,099803
420,000000	0,099877
419,000000	0,100613
418,000000	0,101164
417,000000	0,101478
416,000000	0,101661
415,000000	0,102136
414,000000	0,102441
413,000000	0,102250
412,000000	0,102883
411,000000	0,103189
410,000000	0,103760
409,000000	0,103987
408,000000	0,104473
407,000000	0,104788
406,000000	0,104895
405,000000	0,105206
404,000000	0,105521
403,000000	0,106134
402,000000	0,106114
401,000000	0,106784
400,000000	0,107477
399,000000	0,107621
398,000000	0,107861
397,000000	0,108526
396,000000	0,108754
395,000000	0,108871
394,000000	0,109541
393,000000	0,109777
392,000000	0,110395
391,000000	0,110574
390,000000	0,111130
