PE UV       SUBTECH     SPECTRUM    ASCII       PEDS        4.00        
   -1
branco.Sample.Raw.asc
20/11/03
14:29:35.00
20/11/03
14:29:35.00
Analyst

390,000000
1
Lambda 25
501s11081509
PerkinElmer UV WinLab 6.0.3.0730 / Lambda25 1.27

480
2
1
0
0
Both on
1
1
1
None
0
0
0
0
 
 
0
0
0
0
0
 
 
 
0
 
0
326
0
 
0
 
 
 
0
0
0
 
0
 
 
 
0
 
 
0
0
0
0
0
 
 
 
 
0
0


#HDR
-1
-1
#GR
nm
A
1.0
0.0
700,000000
-1,000000
311
8
0,003221
-0,000833
#DATA
700,000000	-0,000209
699,000000	-0,000369
698,000000	-0,000336
697,000000	-0,000406
696,000000	-0,000148
695,000000	-0,000377
694,000000	-0,000611
693,000000	-0,000021
692,000000	-0,000349
691,000000	-0,000574
690,000000	-0,000456
689,000000	-0,000037
688,000000	-0,000378
687,000000	-0,000616
686,000000	-0,000325
685,000000	-0,000551
684,000000	-0,000781
683,000000	-0,000292
682,000000	-0,000379
681,000000	-0,000626
680,000000	-0,000536
679,000000	-0,000420
678,000000	-0,000058
677,000000	-0,000561
676,000000	-0,000181
675,000000	-0,000016
674,000000	-0,000243
673,000000	-0,000606
672,000000	-0,000483
671,000000	-0,000182
670,000000	-0,000503
669,000000	-0,000128
668,000000	-0,000434
667,000000	-0,000483
666,000000	-0,000541
665,000000	-0,000306
664,000000	-0,000488
663,000000	-0,000570
662,000000	-0,000525
661,000000	-0,000525
660,000000	-0,000637
659,000000	-0,000393
658,000000	-0,000728
657,000000	-0,000422
656,000000	-0,000377
655,000000	-0,000219
654,000000	-0,000277
653,000000	-0,000530
652,000000	-0,000596
651,000000	-0,000576
650,000000	-0,000278
649,000000	-0,000377
648,000000	-0,000626
647,000000	-0,000394
646,000000	-0,000244
645,000000	-0,000294
644,000000	-0,000833
643,000000	-0,000460
642,000000	-0,000427
641,000000	-0,000668
640,000000	-0,000627
639,000000	-0,000191
638,000000	-0,000328
637,000000	-0,000672
636,000000	-0,000465
635,000000	-0,000278
634,000000	-0,000440
633,000000	-0,000606
632,000000	-0,000677
631,000000	-0,000066
630,000000	-0,000814
629,000000	-0,000494
628,000000	-0,000444
627,000000	-0,000278
626,000000	-0,000731
625,000000	-0,000287
624,000000	-0,000154
623,000000	-0,000623
622,000000	-0,000349
621,000000	-0,000133
620,000000	-0,000129
619,000000	-0,000282
618,000000	-0,000569
617,000000	-0,000415
616,000000	-0,000208
615,000000	-0,000224
614,000000	-0,000515
613,000000	-0,000382
612,000000	-0,000457
611,000000	-0,000619
610,000000	-0,000021
609,000000	-0,000287
608,000000	-0,000361
607,000000	-0,000249
606,000000	-0,000407
605,000000	0,000129
604,000000	-0,000544
603,000000	-0,000133
602,000000	-0,000233
601,000000	-0,000270
600,000000	-0,000527
599,000000	-0,000087
598,000000	-0,000212
597,000000	-0,000315
596,000000	-0,000162
595,000000	-0,000075
594,000000	-0,000315
593,000000	-0,000536
592,000000	-0,000017
591,000000	-0,000262
590,000000	-0,000491
589,000000	-0,000441
588,000000	-0,000237
587,000000	-0,000162
586,000000	-0,000576
585,000000	-0,000530
584,000000	-0,000125
583,000000	-0,000569
582,000000	-0,000549
581,000000	-0,000633
580,000000	-0,000084
579,000000	-0,000437
578,000000	-0,000286
577,000000	-0,000143
576,000000	-0,000396
575,000000	-0,000303
574,000000	-0,000042
573,000000	-0,000068
572,000000	-0,000486
571,000000	-0,000346
570,000000	-0,000101
569,000000	-0,000173
568,000000	-0,000292
567,000000	-0,000824
566,000000	0,000013
565,000000	0,000004
564,000000	-0,000398
563,000000	-0,000254
562,000000	-0,000360
561,000000	-0,000533
560,000000	-0,000330
559,000000	0,000102
558,000000	-0,000182
557,000000	-0,000647
556,000000	-0,000076
555,000000	-0,000059
554,000000	-0,000440
553,000000	-0,000351
552,000000	-0,000144
551,000000	-0,000072
550,000000	-0,000216
549,000000	-0,000144
548,000000	0,000258
547,000000	-0,000165
546,000000	-0,000211
545,000000	0,000047
544,000000	-0,000144
543,000000	-0,000385
542,000000	-0,000347
541,000000	0,000144
540,000000	0,000123
539,000000	-0,000068
538,000000	-0,000021
537,000000	-0,000296
536,000000	-0,000418
535,000000	-0,000106
534,000000	0,000051
533,000000	-0,000258
532,000000	0,000051
531,000000	0,000097
530,000000	0,000190
529,000000	-0,000291
528,000000	-0,000106
527,000000	0,000342
526,000000	-0,000144
525,000000	0,000084
524,000000	0,000122
523,000000	0,000042
522,000000	-0,000046
521,000000	-0,000004
520,000000	0,000553
519,000000	-0,000008
518,000000	-0,000409
517,000000	0,000038
516,000000	-0,000021
515,000000	0,000063
514,000000	-0,000253
513,000000	0,000527
512,000000	0,000460
511,000000	0,000321
510,000000	-0,000076
509,000000	0,000527
508,000000	0,000291
507,000000	-0,000194
506,000000	0,000506
505,000000	0,000114
504,000000	0,000480
503,000000	0,000114
502,000000	0,000248
501,000000	0,000391
500,000000	0,000354
499,000000	0,000164
498,000000	0,000093
497,000000	0,000555
496,000000	0,000151
495,000000	0,000660
494,000000	0,000652
493,000000	0,000055
492,000000	0,000534
491,000000	0,000589
490,000000	0,000500
489,000000	0,000500
488,000000	0,000534
487,000000	0,000491
486,000000	0,000239
485,000000	0,000206
484,000000	0,000353
483,000000	0,000777
482,000000	0,000571
481,000000	0,000189
480,000000	0,001016
479,000000	0,000701
478,000000	0,000768
477,000000	0,000647
476,000000	0,001025
475,000000	0,000546
474,000000	0,000840
473,000000	0,000866
472,000000	0,000836
471,000000	0,000954
470,000000	0,000462
469,000000	0,000681
468,000000	0,001182
467,000000	0,000720
466,000000	0,001100
465,000000	0,001252
464,000000	0,001008
463,000000	0,000696
462,000000	0,001148
461,000000	0,000967
460,000000	0,000866
459,000000	0,001209
458,000000	0,001141
457,000000	0,001705
456,000000	0,001071
455,000000	0,001384
454,000000	0,001397
453,000000	0,001173
452,000000	0,001203
451,000000	0,001504
450,000000	0,001453
449,000000	0,001221
448,000000	0,001374
447,000000	0,002122
446,000000	0,001189
445,000000	0,001041
444,000000	0,001445
443,000000	0,001689
442,000000	0,001731
441,000000	0,001337
440,000000	0,002138
439,000000	0,001960
438,000000	0,001805
437,000000	0,001908
436,000000	0,001810
435,000000	0,001371
434,000000	0,001145
433,000000	0,002316
432,000000	0,002318
431,000000	0,001885
430,000000	0,002044
429,000000	0,002336
428,000000	0,001643
427,000000	0,001618
426,000000	0,002182
425,000000	0,002203
424,000000	0,002366
423,000000	0,002355
422,000000	0,002914
421,000000	0,002082
420,000000	0,001992
419,000000	0,002145
418,000000	0,002613
417,000000	0,002544
416,000000	0,002526
415,000000	0,002706
414,000000	0,002799
413,000000	0,002269
412,000000	0,002439
411,000000	0,002404
410,000000	0,002759
409,000000	0,002553
408,000000	0,002737
407,000000	0,002929
406,000000	0,002326
405,000000	0,002680
404,000000	0,002432
403,000000	0,002816
402,000000	0,002486
401,000000	0,002761
400,000000	0,003153
399,000000	0,003037
398,000000	0,002686
397,000000	0,003221
396,000000	0,002925
395,000000	0,002724
394,000000	0,002805
393,000000	0,003060
392,000000	0,003180
391,000000	0,002580
390,000000	0,003213
