PE UV       SUBTECH     SPECTRUM    ASCII       PEDS        4.00        
   -1
15.Sample.Raw.asc
20/09/01
14:31:52.00
20/09/01
14:31:52.00
Analyst

390,000000
1
Lambda 25
501s11081509
PerkinElmer UV WinLab 6.0.3.0730 / Lambda25 1.27

480
2
1
0
0
Both on
1
1
1
None
0
0
0
0
 
 
0
0
0
0
0
 
 
 
0
 
0
326
0
 
0
 
 
 
0
0
0
 
0
 
 
 
0
 
 
0
0
0
0
0
 
 
 
 
0
0


#HDR
-1
-1
#GR
nm
A
1.0
0.0
700,000000
-1,000000
311
8
0,247571
0,001746
#DATA
700,000000	0,001803
699,000000	0,001800
698,000000	0,001923
697,000000	0,001981
696,000000	0,001966
695,000000	0,001880
694,000000	0,002008
693,000000	0,001971
692,000000	0,001746
691,000000	0,001853
690,000000	0,001952
689,000000	0,001948
688,000000	0,001953
687,000000	0,001962
686,000000	0,002106
685,000000	0,001913
684,000000	0,002133
683,000000	0,002845
682,000000	0,002796
681,000000	0,002970
680,000000	0,003046
679,000000	0,002856
678,000000	0,002791
677,000000	0,002744
676,000000	0,002734
675,000000	0,002508
674,000000	0,002665
673,000000	0,002818
672,000000	0,002554
671,000000	0,002716
670,000000	0,003055
669,000000	0,002836
668,000000	0,002936
667,000000	0,002705
666,000000	0,002910
665,000000	0,002782
664,000000	0,002365
663,000000	0,002729
662,000000	0,002817
661,000000	0,002678
660,000000	0,002760
659,000000	0,002660
658,000000	0,002764
657,000000	0,002591
656,000000	0,002591
655,000000	0,002703
654,000000	0,002472
653,000000	0,002584
652,000000	0,002689
651,000000	0,002772
650,000000	0,002690
649,000000	0,002786
648,000000	0,002495
647,000000	0,002678
646,000000	0,002483
645,000000	0,002542
644,000000	0,002472
643,000000	0,002373
642,000000	0,002642
641,000000	0,002617
640,000000	0,002572
639,000000	0,002796
638,000000	0,002835
637,000000	0,002628
636,000000	0,002694
635,000000	0,002561
634,000000	0,002541
633,000000	0,002595
632,000000	0,002599
631,000000	0,002711
630,000000	0,002637
629,000000	0,002911
628,000000	0,002650
627,000000	0,002712
626,000000	0,002736
625,000000	0,002882
624,000000	0,002824
623,000000	0,002683
622,000000	0,002709
621,000000	0,002787
620,000000	0,002887
619,000000	0,002812
618,000000	0,002734
617,000000	0,002805
616,000000	0,002614
615,000000	0,002849
614,000000	0,002654
613,000000	0,002726
612,000000	0,002772
611,000000	0,002681
610,000000	0,002748
609,000000	0,002777
608,000000	0,002835
607,000000	0,002967
606,000000	0,002871
605,000000	0,002874
604,000000	0,002721
603,000000	0,002867
602,000000	0,002725
601,000000	0,002725
600,000000	0,002713
599,000000	0,002754
598,000000	0,003094
597,000000	0,002991
596,000000	0,002919
595,000000	0,002861
594,000000	0,002820
593,000000	0,002858
592,000000	0,002888
591,000000	0,002922
590,000000	0,002750
589,000000	0,002985
588,000000	0,003020
587,000000	0,002890
586,000000	0,002959
585,000000	0,002761
584,000000	0,002780
583,000000	0,003127
582,000000	0,003135
581,000000	0,002991
580,000000	0,003382
579,000000	0,003015
578,000000	0,003173
577,000000	0,003302
576,000000	0,003322
575,000000	0,003106
574,000000	0,003345
573,000000	0,003250
572,000000	0,003441
571,000000	0,003329
570,000000	0,003394
569,000000	0,003598
568,000000	0,003450
567,000000	0,003678
566,000000	0,003500
565,000000	0,003590
564,000000	0,003228
563,000000	0,003608
562,000000	0,003552
561,000000	0,003693
560,000000	0,003655
559,000000	0,003303
558,000000	0,003582
557,000000	0,003514
556,000000	0,003438
555,000000	0,003321
554,000000	0,003432
553,000000	0,003542
552,000000	0,003304
551,000000	0,003660
550,000000	0,003557
549,000000	0,003772
548,000000	0,003314
547,000000	0,003415
546,000000	0,003444
545,000000	0,003314
544,000000	0,003546
543,000000	0,003423
542,000000	0,003664
541,000000	0,003381
540,000000	0,003487
539,000000	0,003626
538,000000	0,003548
537,000000	0,003591
536,000000	0,003610
535,000000	0,003323
534,000000	0,003845
533,000000	0,003557
532,000000	0,003564
531,000000	0,003933
530,000000	0,003827
529,000000	0,003666
528,000000	0,003631
527,000000	0,003593
526,000000	0,003539
525,000000	0,003514
524,000000	0,003720
523,000000	0,003599
522,000000	0,003784
521,000000	0,003784
520,000000	0,003694
519,000000	0,003634
518,000000	0,003624
517,000000	0,003704
516,000000	0,003569
515,000000	0,003577
514,000000	0,003789
513,000000	0,003691
512,000000	0,003965
511,000000	0,003829
510,000000	0,003913
509,000000	0,003854
508,000000	0,003946
507,000000	0,004288
506,000000	0,003831
505,000000	0,004000
504,000000	0,003909
503,000000	0,003872
502,000000	0,003836
501,000000	0,004021
500,000000	0,004260
499,000000	0,004150
498,000000	0,004021
497,000000	0,003874
496,000000	0,004007
495,000000	0,004020
494,000000	0,004015
493,000000	0,004049
492,000000	0,004203
491,000000	0,004380
490,000000	0,004287
489,000000	0,004389
488,000000	0,004633
487,000000	0,004452
486,000000	0,004286
485,000000	0,004165
484,000000	0,004371
483,000000	0,004538
482,000000	0,004440
481,000000	0,004533
480,000000	0,004641
479,000000	0,004690
478,000000	0,004619
477,000000	0,004549
476,000000	0,004248
475,000000	0,004780
474,000000	0,004495
473,000000	0,004665
472,000000	0,004836
471,000000	0,004759
470,000000	0,004926
469,000000	0,004809
468,000000	0,004931
467,000000	0,004738
466,000000	0,005201
465,000000	0,005285
464,000000	0,005011
463,000000	0,005226
462,000000	0,005187
461,000000	0,005433
460,000000	0,005586
459,000000	0,005710
458,000000	0,005838
457,000000	0,005564
456,000000	0,005888
455,000000	0,005424
454,000000	0,005824
453,000000	0,005841
452,000000	0,005900
451,000000	0,006145
450,000000	0,006139
449,000000	0,006608
448,000000	0,006324
447,000000	0,006314
446,000000	0,006402
445,000000	0,006504
444,000000	0,006590
443,000000	0,007176
442,000000	0,006913
441,000000	0,007184
440,000000	0,007298
439,000000	0,007608
438,000000	0,007470
437,000000	0,007576
436,000000	0,008002
435,000000	0,007860
434,000000	0,007910
433,000000	0,008147
432,000000	0,008341
431,000000	0,008882
430,000000	0,008945
429,000000	0,008986
428,000000	0,009115
427,000000	0,009793
426,000000	0,009615
425,000000	0,010108
424,000000	0,010671
423,000000	0,010792
422,000000	0,011520
421,000000	0,009966
420,000000	0,010379
419,000000	0,011049
418,000000	0,011696
417,000000	0,012399
416,000000	0,012916
415,000000	0,014110
414,000000	0,014643
413,000000	0,015617
412,000000	0,016788
411,000000	0,018056
410,000000	0,018961
409,000000	0,020144
408,000000	0,021444
407,000000	0,022980
406,000000	0,024711
405,000000	0,026436
404,000000	0,028343
403,000000	0,030717
402,000000	0,034176
401,000000	0,038427
400,000000	0,042789
399,000000	0,049807
398,000000	0,057531
397,000000	0,067291
396,000000	0,080158
395,000000	0,096777
394,000000	0,117618
393,000000	0,142062
392,000000	0,172723
391,000000	0,207582
390,000000	0,247571
