PE UV       SUBTECH     SPECTRUM    ASCII       PEDS        4.00        
   -1
16-38.Sample.Raw.asc
20/09/01
15:37:55.00
20/09/01
15:37:55.00
Analyst

390,000000
1
Lambda 25
501s11081509
PerkinElmer UV WinLab 6.0.3.0730 / Lambda25 1.27

480
2
1
0
0
Both on
1
1
1
None
0
0
0
0
 
 
0
0
0
0
0
 
 
 
0
 
0
326
0
 
0
 
 
 
0
0
0
 
0
 
 
 
0
 
 
0
0
0
0
0
 
 
 
 
0
0


#HDR
-1
-1
#GR
nm
A
1.0
0.0
700,000000
-1,000000
311
8
0,412412
0,003040
#DATA
700,000000	0,003061
699,000000	0,003116
698,000000	0,003223
697,000000	0,003076
696,000000	0,003040
695,000000	0,003095
694,000000	0,003137
693,000000	0,003145
692,000000	0,003255
691,000000	0,003210
690,000000	0,003161
689,000000	0,003351
688,000000	0,003560
687,000000	0,003383
686,000000	0,003635
685,000000	0,003463
684,000000	0,003646
683,000000	0,004264
682,000000	0,004506
681,000000	0,004320
680,000000	0,004574
679,000000	0,004479
678,000000	0,004452
677,000000	0,004447
676,000000	0,004541
675,000000	0,004473
674,000000	0,004552
673,000000	0,004842
672,000000	0,004816
671,000000	0,004708
670,000000	0,005024
669,000000	0,004942
668,000000	0,005129
667,000000	0,005036
666,000000	0,004975
665,000000	0,005048
664,000000	0,005001
663,000000	0,005187
662,000000	0,005235
661,000000	0,005059
660,000000	0,005304
659,000000	0,005462
658,000000	0,005446
657,000000	0,005465
656,000000	0,005557
655,000000	0,005695
654,000000	0,005514
653,000000	0,005640
652,000000	0,005583
651,000000	0,005742
650,000000	0,005651
649,000000	0,005715
648,000000	0,005736
647,000000	0,005774
646,000000	0,005902
645,000000	0,005850
644,000000	0,005775
643,000000	0,005986
642,000000	0,006143
641,000000	0,006109
640,000000	0,006161
639,000000	0,006251
638,000000	0,006195
637,000000	0,006311
636,000000	0,006274
635,000000	0,006576
634,000000	0,006472
633,000000	0,006519
632,000000	0,006494
631,000000	0,006829
630,000000	0,006960
629,000000	0,006976
628,000000	0,006962
627,000000	0,006969
626,000000	0,007319
625,000000	0,007376
624,000000	0,007443
623,000000	0,007376
622,000000	0,007331
621,000000	0,007774
620,000000	0,007643
619,000000	0,007682
618,000000	0,007600
617,000000	0,007841
616,000000	0,007999
615,000000	0,008491
614,000000	0,008532
613,000000	0,008374
612,000000	0,008312
611,000000	0,008371
610,000000	0,008203
609,000000	0,008421
608,000000	0,008746
607,000000	0,008786
606,000000	0,008915
605,000000	0,009201
604,000000	0,009312
603,000000	0,009448
602,000000	0,009514
601,000000	0,009503
600,000000	0,009835
599,000000	0,009992
598,000000	0,010002
597,000000	0,010161
596,000000	0,010418
595,000000	0,010790
594,000000	0,011001
593,000000	0,011106
592,000000	0,010994
591,000000	0,011231
590,000000	0,011568
589,000000	0,011652
588,000000	0,012045
587,000000	0,012014
586,000000	0,012174
585,000000	0,012431
584,000000	0,012726
583,000000	0,013239
582,000000	0,013432
581,000000	0,013714
580,000000	0,013864
579,000000	0,014345
578,000000	0,014661
577,000000	0,014768
576,000000	0,014973
575,000000	0,015251
574,000000	0,015751
573,000000	0,015948
572,000000	0,016138
571,000000	0,016447
570,000000	0,016909
569,000000	0,017217
568,000000	0,017815
567,000000	0,018035
566,000000	0,018464
565,000000	0,019081
564,000000	0,018766
563,000000	0,019843
562,000000	0,019885
561,000000	0,020275
560,000000	0,020962
559,000000	0,021676
558,000000	0,022427
557,000000	0,022800
556,000000	0,023100
555,000000	0,023457
554,000000	0,024102
553,000000	0,024823
552,000000	0,025158
551,000000	0,025957
550,000000	0,026674
549,000000	0,027618
548,000000	0,028047
547,000000	0,028694
546,000000	0,029613
545,000000	0,030123
544,000000	0,031029
543,000000	0,031852
542,000000	0,032717
541,000000	0,033387
540,000000	0,034305
539,000000	0,035377
538,000000	0,036193
537,000000	0,037304
536,000000	0,038261
535,000000	0,039279
534,000000	0,040399
533,000000	0,041421
532,000000	0,042764
531,000000	0,043838
530,000000	0,045113
529,000000	0,045990
528,000000	0,047119
527,000000	0,048394
526,000000	0,049894
525,000000	0,051124
524,000000	0,052661
523,000000	0,053869
522,000000	0,055239
521,000000	0,056579
520,000000	0,057985
519,000000	0,059439
518,000000	0,061225
517,000000	0,062779
516,000000	0,064403
515,000000	0,065864
514,000000	0,067260
513,000000	0,068858
512,000000	0,070450
511,000000	0,071614
510,000000	0,073401
509,000000	0,074914
508,000000	0,076629
507,000000	0,078309
506,000000	0,079633
505,000000	0,080963
504,000000	0,082393
503,000000	0,083708
502,000000	0,085623
501,000000	0,086781
500,000000	0,088556
499,000000	0,089752
498,000000	0,091456
497,000000	0,092755
496,000000	0,094525
495,000000	0,095787
494,000000	0,097379
493,000000	0,098650
492,000000	0,100205
491,000000	0,101638
490,000000	0,103240
489,000000	0,104643
488,000000	0,106694
487,000000	0,108081
486,000000	0,109802
485,000000	0,111401
484,000000	0,112719
483,000000	0,114818
482,000000	0,116570
481,000000	0,118300
480,000000	0,120396
479,000000	0,122179
478,000000	0,124132
477,000000	0,126035
476,000000	0,127669
475,000000	0,130360
474,000000	0,132051
473,000000	0,134037
472,000000	0,136530
471,000000	0,138735
470,000000	0,141191
469,000000	0,143548
468,000000	0,146233
467,000000	0,148655
466,000000	0,151454
465,000000	0,154100
464,000000	0,156524
463,000000	0,159359
462,000000	0,161886
461,000000	0,164994
460,000000	0,168284
459,000000	0,171882
458,000000	0,174675
457,000000	0,178215
456,000000	0,181283
455,000000	0,183811
454,000000	0,187386
453,000000	0,190671
452,000000	0,193618
451,000000	0,197323
450,000000	0,200752
449,000000	0,205008
448,000000	0,207940
447,000000	0,211014
446,000000	0,214349
445,000000	0,217235
444,000000	0,220510
443,000000	0,224441
442,000000	0,227759
441,000000	0,230596
440,000000	0,233570
439,000000	0,236610
438,000000	0,239671
437,000000	0,242147
436,000000	0,245032
435,000000	0,247563
434,000000	0,249811
433,000000	0,252966
432,000000	0,255832
431,000000	0,257585
430,000000	0,260867
429,000000	0,262927
428,000000	0,264747
427,000000	0,267322
426,000000	0,269751
425,000000	0,271522
424,000000	0,275224
423,000000	0,276928
422,000000	0,279134
421,000000	0,277340
420,000000	0,280383
419,000000	0,282295
418,000000	0,284839
417,000000	0,287360
416,000000	0,289339
415,000000	0,291960
414,000000	0,294696
413,000000	0,297276
412,000000	0,300189
411,000000	0,302304
410,000000	0,305569
409,000000	0,308459
408,000000	0,311321
407,000000	0,314458
406,000000	0,317541
405,000000	0,320614
404,000000	0,324066
403,000000	0,327208
402,000000	0,331986
401,000000	0,336335
400,000000	0,340181
399,000000	0,345173
398,000000	0,350475
397,000000	0,355639
396,000000	0,361631
395,000000	0,368005
394,000000	0,375818
393,000000	0,382801
392,000000	0,391998
391,000000	0,401350
390,000000	0,412412
