PE UV       SUBTECH     SPECTRUM    ASCII       PEDS        4.00        
   -1
20.Sample.Raw.asc
20/09/01
14:39:15.00
20/09/01
14:39:15.00
Analyst

390,000000
1
Lambda 25
501s11081509
PerkinElmer UV WinLab 6.0.3.0730 / Lambda25 1.27

480
2
1
0
0
Both on
1
1
1
None
0
0
0
0
 
 
0
0
0
0
0
 
 
 
0
 
0
326
0
 
0
 
 
 
0
0
0
 
0
 
 
 
0
 
 
0
0
0
0
0
 
 
 
 
0
0


#HDR
-1
-1
#GR
nm
A
1.0
0.0
700,000000
-1,000000
311
8
0,247287
0,001990
#DATA
700,000000	0,002169
699,000000	0,002223
698,000000	0,002173
697,000000	0,002146
696,000000	0,001990
695,000000	0,002094
694,000000	0,002205
693,000000	0,002271
692,000000	0,002026
691,000000	0,002224
690,000000	0,002183
689,000000	0,002278
688,000000	0,002143
687,000000	0,002119
686,000000	0,002267
685,000000	0,002136
684,000000	0,002422
683,000000	0,002849
682,000000	0,003024
681,000000	0,002875
680,000000	0,002855
679,000000	0,002943
678,000000	0,003043
677,000000	0,003083
676,000000	0,002941
675,000000	0,002835
674,000000	0,002810
673,000000	0,003000
672,000000	0,002886
671,000000	0,002642
670,000000	0,002836
669,000000	0,002928
668,000000	0,002969
667,000000	0,002958
666,000000	0,002980
665,000000	0,002923
664,000000	0,002697
663,000000	0,002994
662,000000	0,002800
661,000000	0,002645
660,000000	0,002968
659,000000	0,002980
658,000000	0,002901
657,000000	0,002936
656,000000	0,002890
655,000000	0,002761
654,000000	0,002676
653,000000	0,002692
652,000000	0,002710
651,000000	0,002560
650,000000	0,002544
649,000000	0,002358
648,000000	0,002457
647,000000	0,002590
646,000000	0,002567
645,000000	0,002555
644,000000	0,002402
643,000000	0,002510
642,000000	0,002472
641,000000	0,002563
640,000000	0,002514
639,000000	0,002421
638,000000	0,002443
637,000000	0,002449
636,000000	0,002366
635,000000	0,002653
634,000000	0,002803
633,000000	0,002633
632,000000	0,002678
631,000000	0,002628
630,000000	0,002637
629,000000	0,002749
628,000000	0,002433
627,000000	0,002691
626,000000	0,003048
625,000000	0,003011
624,000000	0,002982
623,000000	0,002721
622,000000	0,002551
621,000000	0,002762
620,000000	0,002895
619,000000	0,002716
618,000000	0,002797
617,000000	0,002630
616,000000	0,002672
615,000000	0,003041
614,000000	0,002679
613,000000	0,002947
612,000000	0,002831
611,000000	0,002764
610,000000	0,002502
609,000000	0,002973
608,000000	0,002818
607,000000	0,002421
606,000000	0,002862
605,000000	0,002924
604,000000	0,002825
603,000000	0,002887
602,000000	0,002812
601,000000	0,002750
600,000000	0,002730
599,000000	0,002758
598,000000	0,002949
597,000000	0,002766
596,000000	0,002857
595,000000	0,003090
594,000000	0,002958
593,000000	0,002996
592,000000	0,002913
591,000000	0,003064
590,000000	0,002834
589,000000	0,002826
588,000000	0,003003
587,000000	0,002697
586,000000	0,002922
585,000000	0,002916
584,000000	0,003007
583,000000	0,003211
582,000000	0,003266
581,000000	0,003332
580,000000	0,003264
579,000000	0,003260
578,000000	0,003308
577,000000	0,003324
576,000000	0,003275
575,000000	0,003030
574,000000	0,003171
573,000000	0,003275
572,000000	0,003525
571,000000	0,003389
570,000000	0,003356
569,000000	0,003479
568,000000	0,003505
567,000000	0,003580
566,000000	0,003504
565,000000	0,003607
564,000000	0,003198
563,000000	0,003752
562,000000	0,003645
561,000000	0,003766
560,000000	0,003749
559,000000	0,003609
558,000000	0,003612
557,000000	0,003536
556,000000	0,003561
555,000000	0,003266
554,000000	0,003283
553,000000	0,003351
552,000000	0,003457
551,000000	0,003481
550,000000	0,003548
549,000000	0,003700
548,000000	0,003629
547,000000	0,003713
546,000000	0,003635
545,000000	0,003407
544,000000	0,003500
543,000000	0,003551
542,000000	0,003872
541,000000	0,003509
540,000000	0,003402
539,000000	0,003652
538,000000	0,003854
537,000000	0,003723
536,000000	0,003903
535,000000	0,003765
534,000000	0,003748
533,000000	0,003625
532,000000	0,003946
531,000000	0,003983
530,000000	0,003963
529,000000	0,003840
528,000000	0,003903
527,000000	0,003929
526,000000	0,003607
525,000000	0,003782
524,000000	0,004132
523,000000	0,003718
522,000000	0,004094
521,000000	0,003576
520,000000	0,003966
519,000000	0,003834
518,000000	0,003713
517,000000	0,004013
516,000000	0,003922
515,000000	0,003951
514,000000	0,003993
513,000000	0,003993
512,000000	0,003868
511,000000	0,003923
510,000000	0,003994
509,000000	0,003756
508,000000	0,004251
507,000000	0,004246
506,000000	0,003975
505,000000	0,004174
504,000000	0,004460
503,000000	0,004364
502,000000	0,004438
501,000000	0,004382
500,000000	0,004709
499,000000	0,004578
498,000000	0,004470
497,000000	0,004445
496,000000	0,004709
495,000000	0,004634
494,000000	0,004586
493,000000	0,004693
492,000000	0,005041
491,000000	0,004727
490,000000	0,004633
489,000000	0,004757
488,000000	0,004769
487,000000	0,004836
486,000000	0,004920
485,000000	0,004926
484,000000	0,004912
483,000000	0,004889
482,000000	0,005281
481,000000	0,004736
480,000000	0,005126
479,000000	0,005040
478,000000	0,005219
477,000000	0,004971
476,000000	0,004839
475,000000	0,005317
474,000000	0,004956
473,000000	0,005358
472,000000	0,005171
471,000000	0,005157
470,000000	0,005049
469,000000	0,005554
468,000000	0,005376
467,000000	0,005349
466,000000	0,005537
465,000000	0,005285
464,000000	0,005665
463,000000	0,005659
462,000000	0,005417
461,000000	0,005717
460,000000	0,005756
459,000000	0,006076
458,000000	0,005915
457,000000	0,005892
456,000000	0,006084
455,000000	0,006076
454,000000	0,006088
453,000000	0,006332
452,000000	0,006041
451,000000	0,006606
450,000000	0,006284
449,000000	0,006343
448,000000	0,006435
447,000000	0,006267
446,000000	0,006766
445,000000	0,006675
444,000000	0,006693
443,000000	0,006867
442,000000	0,007222
441,000000	0,007068
440,000000	0,007178
439,000000	0,007032
438,000000	0,007315
437,000000	0,007861
436,000000	0,007890
435,000000	0,007942
434,000000	0,007772
433,000000	0,008112
432,000000	0,007995
431,000000	0,008432
430,000000	0,008898
429,000000	0,009376
428,000000	0,009301
427,000000	0,010023
426,000000	0,010183
425,000000	0,010430
424,000000	0,011515
423,000000	0,011571
422,000000	0,012331
421,000000	0,012418
420,000000	0,013560
419,000000	0,014852
418,000000	0,016349
417,000000	0,018163
416,000000	0,019887
415,000000	0,022350
414,000000	0,024536
413,000000	0,027515
412,000000	0,030882
411,000000	0,034599
410,000000	0,039127
409,000000	0,043749
408,000000	0,048640
407,000000	0,054155
406,000000	0,059875
405,000000	0,066209
404,000000	0,073485
403,000000	0,080702
402,000000	0,089129
401,000000	0,098213
400,000000	0,107625
399,000000	0,118907
398,000000	0,129107
397,000000	0,140109
396,000000	0,152866
395,000000	0,165820
394,000000	0,180285
393,000000	0,195275
392,000000	0,211667
391,000000	0,229040
390,000000	0,247287
