PE UV       SUBTECH     SPECTRUM    ASCII       PEDS        4.00        
   -1
44.Sample.Raw.asc
20/09/01
14:51:17.00
20/09/01
14:51:17.00
Analyst

390,000000
1
Lambda 25
501s11081509
PerkinElmer UV WinLab 6.0.3.0730 / Lambda25 1.27

480
2
1
0
0
Both on
1
1
1
None
0
0
0
0
 
 
0
0
0
0
0
 
 
 
0
 
0
326
0
 
0
 
 
 
0
0
0
 
0
 
 
 
0
 
 
0
0
0
0
0
 
 
 
 
0
0


#HDR
-1
-1
#GR
nm
A
1.0
0.0
700,000000
-1,000000
311
8
0,008558
0,002209
#DATA
700,000000	0,002271
699,000000	0,002330
698,000000	0,002540
697,000000	0,002232
696,000000	0,002225
695,000000	0,002230
694,000000	0,002246
693,000000	0,002230
692,000000	0,002273
691,000000	0,002327
690,000000	0,002307
689,000000	0,002377
688,000000	0,002209
687,000000	0,002350
686,000000	0,002449
685,000000	0,002289
684,000000	0,002451
683,000000	0,003117
682,000000	0,002941
681,000000	0,003177
680,000000	0,002888
679,000000	0,003000
678,000000	0,003002
677,000000	0,003208
676,000000	0,003181
675,000000	0,002781
674,000000	0,003067
673,000000	0,003344
672,000000	0,002981
671,000000	0,003019
670,000000	0,003275
669,000000	0,003197
668,000000	0,003417
667,000000	0,003153
666,000000	0,003167
665,000000	0,003180
664,000000	0,002809
663,000000	0,003081
662,000000	0,003037
661,000000	0,002620
660,000000	0,002980
659,000000	0,002797
658,000000	0,003225
657,000000	0,003040
656,000000	0,003114
655,000000	0,003135
654,000000	0,002996
653,000000	0,002892
652,000000	0,002652
651,000000	0,002984
650,000000	0,002619
649,000000	0,002707
648,000000	0,002890
647,000000	0,002798
646,000000	0,002845
645,000000	0,002763
644,000000	0,002710
643,000000	0,002747
642,000000	0,002967
641,000000	0,002896
640,000000	0,002680
639,000000	0,002920
638,000000	0,002730
637,000000	0,002507
636,000000	0,002586
635,000000	0,002869
634,000000	0,002761
633,000000	0,002620
632,000000	0,002649
631,000000	0,002694
630,000000	0,002786
629,000000	0,002865
628,000000	0,002483
627,000000	0,002962
626,000000	0,003136
625,000000	0,002957
624,000000	0,002978
623,000000	0,002779
622,000000	0,002713
621,000000	0,003125
620,000000	0,002795
619,000000	0,002850
618,000000	0,002876
617,000000	0,002809
616,000000	0,002760
615,000000	0,003254
614,000000	0,002788
613,000000	0,002801
612,000000	0,002739
611,000000	0,002706
610,000000	0,002723
609,000000	0,002472
608,000000	0,002730
607,000000	0,002884
606,000000	0,002866
605,000000	0,002933
604,000000	0,002916
603,000000	0,002746
602,000000	0,002787
601,000000	0,002671
600,000000	0,002442
599,000000	0,003008
598,000000	0,002899
597,000000	0,002778
596,000000	0,002724
595,000000	0,002853
594,000000	0,002741
593,000000	0,002717
592,000000	0,002821
591,000000	0,002922
590,000000	0,002805
589,000000	0,002743
588,000000	0,003003
587,000000	0,002576
586,000000	0,002963
585,000000	0,002770
584,000000	0,003104
583,000000	0,003030
582,000000	0,002954
581,000000	0,002911
580,000000	0,002936
579,000000	0,002872
578,000000	0,002987
577,000000	0,002829
576,000000	0,003038
575,000000	0,002877
574,000000	0,002959
573,000000	0,002979
572,000000	0,002915
571,000000	0,003130
570,000000	0,003127
569,000000	0,003253
568,000000	0,002915
567,000000	0,003350
566,000000	0,003228
565,000000	0,003144
564,000000	0,002850
563,000000	0,003178
562,000000	0,003395
561,000000	0,003175
560,000000	0,003443
559,000000	0,002708
558,000000	0,003161
557,000000	0,003111
556,000000	0,002869
555,000000	0,002769
554,000000	0,002871
553,000000	0,002782
552,000000	0,002947
551,000000	0,003061
550,000000	0,003102
549,000000	0,003181
548,000000	0,002796
547,000000	0,002927
546,000000	0,002888
545,000000	0,002859
544,000000	0,002808
543,000000	0,002926
542,000000	0,002722
541,000000	0,002757
540,000000	0,002672
539,000000	0,002832
538,000000	0,003090
537,000000	0,003031
536,000000	0,003237
535,000000	0,002789
534,000000	0,003081
533,000000	0,003022
532,000000	0,003292
531,000000	0,003109
530,000000	0,002978
529,000000	0,003101
528,000000	0,003080
527,000000	0,003063
526,000000	0,002911
525,000000	0,002912
524,000000	0,003156
523,000000	0,002869
522,000000	0,002931
521,000000	0,003033
520,000000	0,002943
519,000000	0,002964
518,000000	0,003022
517,000000	0,003021
516,000000	0,003099
515,000000	0,002857
514,000000	0,003077
513,000000	0,002929
512,000000	0,002792
511,000000	0,003228
510,000000	0,002859
509,000000	0,003066
508,000000	0,003120
507,000000	0,003140
506,000000	0,003145
505,000000	0,003293
504,000000	0,003363
503,000000	0,003085
502,000000	0,003117
501,000000	0,002968
500,000000	0,003165
499,000000	0,003245
498,000000	0,003201
497,000000	0,003303
496,000000	0,003246
495,000000	0,003192
494,000000	0,003191
493,000000	0,003112
492,000000	0,003367
491,000000	0,003429
490,000000	0,003176
489,000000	0,003461
488,000000	0,003599
487,000000	0,003321
486,000000	0,003451
485,000000	0,003532
484,000000	0,003417
483,000000	0,003509
482,000000	0,003697
481,000000	0,003613
480,000000	0,003620
479,000000	0,003707
478,000000	0,003388
477,000000	0,003267
476,000000	0,003556
475,000000	0,003721
474,000000	0,003521
473,000000	0,003673
472,000000	0,003586
471,000000	0,003860
470,000000	0,003747
469,000000	0,003592
468,000000	0,004000
467,000000	0,003694
466,000000	0,003978
465,000000	0,003785
464,000000	0,004248
463,000000	0,003767
462,000000	0,004012
461,000000	0,004062
460,000000	0,004554
459,000000	0,004503
458,000000	0,004363
457,000000	0,004297
456,000000	0,004539
455,000000	0,004164
454,000000	0,004258
453,000000	0,004441
452,000000	0,004371
451,000000	0,004568
450,000000	0,004677
449,000000	0,005000
448,000000	0,004495
447,000000	0,004696
446,000000	0,005053
445,000000	0,005042
444,000000	0,004948
443,000000	0,005498
442,000000	0,005123
441,000000	0,005173
440,000000	0,005471
439,000000	0,005406
438,000000	0,005499
437,000000	0,005500
436,000000	0,005391
435,000000	0,005055
434,000000	0,005276
433,000000	0,005688
432,000000	0,005889
431,000000	0,005864
430,000000	0,006211
429,000000	0,005800
428,000000	0,005757
427,000000	0,005977
426,000000	0,006060
425,000000	0,006157
424,000000	0,006319
423,000000	0,006121
422,000000	0,005859
421,000000	0,004875
420,000000	0,005036
419,000000	0,005032
418,000000	0,005239
417,000000	0,005502
416,000000	0,005543
415,000000	0,005662
414,000000	0,005297
413,000000	0,005459
412,000000	0,005707
411,000000	0,005634
410,000000	0,005980
409,000000	0,006087
408,000000	0,006017
407,000000	0,006326
406,000000	0,006514
405,000000	0,006492
404,000000	0,006521
403,000000	0,006319
402,000000	0,006650
401,000000	0,006953
400,000000	0,006647
399,000000	0,007248
398,000000	0,007317
397,000000	0,007628
396,000000	0,007497
395,000000	0,007712
394,000000	0,008229
393,000000	0,008164
392,000000	0,008035
391,000000	0,008264
390,000000	0,008558
