PE UV       SUBTECH     SPECTRUM    ASCII       PEDS        4.00        
   -1
100% or 0 Absorbance Baseline.Correction.Raw.asc
20/08/27
14:43:53.00
20/08/27
14:43:53.00
Analyst

390,000000
1
Lambda 25
501s11081509
PerkinElmer UV WinLab 6.0.3.0730 / Lambda25 1.27

480
0
1
0
0
Both on
0
1
1
None
0
0
0
0
 
 
0
0
0
0
0
 
 
 
0
 
0
326
0
 
0
 
 
 
0
0
0
 
0
 
 
 
0
 
 
0
0
0
0
0
 
 
 
 
0
0


#HDR
-1
-1
#GR
nm
A
1.0
0.0
700,000000
-1,000000
311
8
-0,007270
-0,025670
#DATA
700,000000	-0,025670
699,000000	-0,025654
698,000000	-0,025429
697,000000	-0,025289
696,000000	-0,025187
695,000000	-0,024871
694,000000	-0,024880
693,000000	-0,024674
692,000000	-0,024621
691,000000	-0,024592
690,000000	-0,024551
689,000000	-0,024391
688,000000	-0,024338
687,000000	-0,024235
686,000000	-0,023952
685,000000	-0,023816
684,000000	-0,023713
683,000000	-0,022981
682,000000	-0,023322
681,000000	-0,023059
680,000000	-0,022977
679,000000	-0,022845
678,000000	-0,022639
677,000000	-0,022779
676,000000	-0,022507
675,000000	-0,022519
674,000000	-0,022354
673,000000	-0,022432
672,000000	-0,022107
671,000000	-0,022074
670,000000	-0,021892
669,000000	-0,021797
668,000000	-0,021875
667,000000	-0,021603
666,000000	-0,021582
665,000000	-0,021491
664,000000	-0,021590
663,000000	-0,021334
662,000000	-0,021429
661,000000	-0,021243
660,000000	-0,021049
659,000000	-0,020912
658,000000	-0,020987
657,000000	-0,020842
656,000000	-0,020838
655,000000	-0,020833
654,000000	-0,020833
653,000000	-0,020705
652,000000	-0,020510
651,000000	-0,020469
650,000000	-0,020411
649,000000	-0,020162
648,000000	-0,020357
647,000000	-0,020258
646,000000	-0,020299
645,000000	-0,020212
644,000000	-0,020046
643,000000	-0,020245
642,000000	-0,020096
641,000000	-0,019839
640,000000	-0,019988
639,000000	-0,019901
638,000000	-0,020042
637,000000	-0,019291
636,000000	-0,019739
635,000000	-0,019735
634,000000	-0,019818
633,000000	-0,019673
632,000000	-0,019656
631,000000	-0,019806
630,000000	-0,019594
629,000000	-0,019764
628,000000	-0,019582
627,000000	-0,019544
626,000000	-0,019627
625,000000	-0,019577
624,000000	-0,019544
623,000000	-0,019644
622,000000	-0,019548
621,000000	-0,019494
620,000000	-0,019523
619,000000	-0,019428
618,000000	-0,019494
617,000000	-0,019249
616,000000	-0,019474
615,000000	-0,019515
614,000000	-0,019399
613,000000	-0,019449
612,000000	-0,019295
611,000000	-0,019287
610,000000	-0,019287
609,000000	-0,019432
608,000000	-0,019162
607,000000	-0,019341
606,000000	-0,019660
605,000000	-0,019498
604,000000	-0,019718
603,000000	-0,019669
602,000000	-0,019785
601,000000	-0,019486
600,000000	-0,019644
599,000000	-0,019420
598,000000	-0,019561
597,000000	-0,019843
596,000000	-0,019640
595,000000	-0,019860
594,000000	-0,019669
593,000000	-0,019552
592,000000	-0,019233
591,000000	-0,019266
590,000000	-0,018846
589,000000	-0,018551
588,000000	-0,018263
587,000000	-0,018034
586,000000	-0,017713
585,000000	-0,017213
584,000000	-0,016816
583,000000	-0,016415
582,000000	-0,015745
581,000000	-0,015469
580,000000	-0,015003
579,000000	-0,014361
578,000000	-0,014155
577,000000	-0,013743
576,000000	-0,013246
575,000000	-0,013040
574,000000	-0,012639
573,000000	-0,012183
572,000000	-0,011887
571,000000	-0,011710
570,000000	-0,011642
569,000000	-0,011676
568,000000	-0,011761
567,000000	-0,011680
566,000000	-0,011676
565,000000	-0,011617
564,000000	-0,011587
563,000000	-0,011181
562,000000	-0,011503
561,000000	-0,011130
560,000000	-0,011008
559,000000	-0,011452
558,000000	-0,011524
557,000000	-0,011604
556,000000	-0,011617
555,000000	-0,011469
554,000000	-0,011494
553,000000	-0,011312
552,000000	-0,011393
551,000000	-0,011655
550,000000	-0,011735
549,000000	-0,011659
548,000000	-0,011837
547,000000	-0,011930
546,000000	-0,012023
545,000000	-0,012061
544,000000	-0,012078
543,000000	-0,012010
542,000000	-0,011980
541,000000	-0,011980
540,000000	-0,012183
539,000000	-0,011942
538,000000	-0,012474
537,000000	-0,012462
536,000000	-0,012314
535,000000	-0,012297
534,000000	-0,012365
533,000000	-0,012335
532,000000	-0,012339
531,000000	-0,012504
530,000000	-0,012356
529,000000	-0,012398
528,000000	-0,012534
527,000000	-0,012192
526,000000	-0,012394
525,000000	-0,012217
524,000000	-0,012496
523,000000	-0,012352
522,000000	-0,012424
521,000000	-0,012791
520,000000	-0,012580
519,000000	-0,012715
518,000000	-0,012753
517,000000	-0,012875
516,000000	-0,012841
515,000000	-0,012757
514,000000	-0,012808
513,000000	-0,012900
512,000000	-0,013103
511,000000	-0,013094
510,000000	-0,013200
509,000000	-0,013604
508,000000	-0,013478
507,000000	-0,013654
506,000000	-0,013532
505,000000	-0,013957
504,000000	-0,013886
503,000000	-0,013848
502,000000	-0,013987
501,000000	-0,014151
500,000000	-0,014260
499,000000	-0,014218
498,000000	-0,014235
497,000000	-0,014453
496,000000	-0,014201
495,000000	-0,014466
494,000000	-0,014500
493,000000	-0,014571
492,000000	-0,014777
491,000000	-0,014848
490,000000	-0,014777
489,000000	-0,015003
488,000000	-0,015150
487,000000	-0,015054
486,000000	-0,015221
485,000000	-0,015213
484,000000	-0,015167
483,000000	-0,015184
482,000000	-0,015192
481,000000	-0,015494
480,000000	-0,015389
479,000000	-0,015645
478,000000	-0,015691
477,000000	-0,015586
476,000000	-0,015326
475,000000	-0,015460
474,000000	-0,015238
473,000000	-0,015402
472,000000	-0,015192
471,000000	-0,015226
470,000000	-0,014810
469,000000	-0,014861
468,000000	-0,014550
467,000000	-0,014298
466,000000	-0,013962
465,000000	-0,013911
464,000000	-0,013798
463,000000	-0,013591
462,000000	-0,013478
461,000000	-0,013377
460,000000	-0,013149
459,000000	-0,012964
458,000000	-0,012622
457,000000	-0,012297
456,000000	-0,012225
455,000000	-0,012213
454,000000	-0,012268
453,000000	-0,012217
452,000000	-0,012099
451,000000	-0,011942
450,000000	-0,011837
449,000000	-0,011786
448,000000	-0,011431
447,000000	-0,011071
446,000000	-0,011240
445,000000	-0,011169
444,000000	-0,010406
443,000000	-0,010101
442,000000	-0,010241
441,000000	-0,010185
440,000000	-0,009578
439,000000	-0,009468
438,000000	-0,009073
437,000000	-0,009166
436,000000	-0,009064
435,000000	-0,008677
434,000000	-0,008217
433,000000	-0,008268
432,000000	-0,008255
431,000000	-0,008447
430,000000	-0,007889
429,000000	-0,008349
428,000000	-0,007935
427,000000	-0,008144
426,000000	-0,007859
425,000000	-0,008008
424,000000	-0,007957
423,000000	-0,007752
422,000000	-0,008225
421,000000	-0,007270
420,000000	-0,007505
419,000000	-0,007581
418,000000	-0,007492
417,000000	-0,007829
416,000000	-0,007765
415,000000	-0,007825
414,000000	-0,007897
413,000000	-0,007999
412,000000	-0,008123
411,000000	-0,008059
410,000000	-0,008276
409,000000	-0,008170
408,000000	-0,008140
407,000000	-0,008345
406,000000	-0,008323
405,000000	-0,008391
404,000000	-0,008515
403,000000	-0,008668
402,000000	-0,008660
401,000000	-0,008962
400,000000	-0,008873
399,000000	-0,009077
398,000000	-0,009085
397,000000	-0,009034
396,000000	-0,009370
395,000000	-0,009549
394,000000	-0,009425
393,000000	-0,009753
392,000000	-0,009820
391,000000	-0,009833
390,000000	-0,009791
