PE UV       SUBTECH     SPECTRUM    ASCII       PEDS        4.00        
   -1
branco.Sample.Raw.asc
20/08/27
14:47:30.00
20/08/27
14:47:30.00
Analyst

390,000000
1
Lambda 25
501s11081509
PerkinElmer UV WinLab 6.0.3.0730 / Lambda25 1.27

480
2
1
0
0
Both on
1
1
1
None
0
0
0
0
 
 
0
0
0
0
0
 
 
 
0
 
0
326
0
 
0
 
 
 
0
0
0
 
0
 
 
 
0
 
 
0
0
0
0
0
 
 
 
 
0
0


#HDR
-1
-1
#GR
nm
A
1.0
0.0
700,000000
-1,000000
311
8
0,002324
0,000801
#DATA
700,000000	0,001476
699,000000	0,001558
698,000000	0,001498
697,000000	0,001412
696,000000	0,001568
695,000000	0,001582
694,000000	0,001306
693,000000	0,001319
692,000000	0,001290
691,000000	0,001443
690,000000	0,001472
689,000000	0,001444
688,000000	0,001497
687,000000	0,001440
686,000000	0,001297
685,000000	0,001367
684,000000	0,001425
683,000000	0,001122
682,000000	0,001360
681,000000	0,001469
680,000000	0,001415
679,000000	0,001308
678,000000	0,001321
677,000000	0,001722
676,000000	0,001086
675,000000	0,001557
674,000000	0,001289
673,000000	0,001570
672,000000	0,001501
671,000000	0,001335
670,000000	0,001145
669,000000	0,001208
668,000000	0,001245
667,000000	0,001266
666,000000	0,001300
665,000000	0,001573
664,000000	0,001536
663,000000	0,001263
662,000000	0,001300
661,000000	0,001346
660,000000	0,001330
659,000000	0,001127
658,000000	0,001131
657,000000	0,001044
656,000000	0,001422
655,000000	0,001389
654,000000	0,001352
653,000000	0,001360
652,000000	0,001365
651,000000	0,001378
650,000000	0,001407
649,000000	0,001187
648,000000	0,001486
647,000000	0,001241
646,000000	0,001378
645,000000	0,001520
644,000000	0,001254
643,000000	0,001690
642,000000	0,001404
641,000000	0,001188
640,000000	0,001388
639,000000	0,001305
638,000000	0,001637
637,000000	0,000898
636,000000	0,001334
635,000000	0,001397
634,000000	0,001605
633,000000	0,001309
632,000000	0,001372
631,000000	0,001396
630,000000	0,001364
629,000000	0,001480
628,000000	0,001331
627,000000	0,001247
626,000000	0,001364
625,000000	0,001135
624,000000	0,001293
623,000000	0,001589
622,000000	0,000989
621,000000	0,001518
620,000000	0,001056
619,000000	0,001281
618,000000	0,001243
617,000000	0,000936
616,000000	0,001206
615,000000	0,001352
614,000000	0,001223
613,000000	0,001368
612,000000	0,001369
611,000000	0,001119
610,000000	0,001156
609,000000	0,001564
608,000000	0,001140
607,000000	0,001085
606,000000	0,001613
605,000000	0,001214
604,000000	0,001467
603,000000	0,001405
602,000000	0,001555
601,000000	0,001118
600,000000	0,001297
599,000000	0,001156
598,000000	0,001056
597,000000	0,001392
596,000000	0,001106
595,000000	0,001309
594,000000	0,001176
593,000000	0,001222
592,000000	0,001069
591,000000	0,001227
590,000000	0,000895
589,000000	0,001117
588,000000	0,001055
587,000000	0,001285
586,000000	0,001048
585,000000	0,001036
584,000000	0,001042
583,000000	0,001416
582,000000	0,000935
581,000000	0,001167
580,000000	0,001303
579,000000	0,000976
578,000000	0,001486
577,000000	0,001154
576,000000	0,000974
575,000000	0,001051
574,000000	0,001111
573,000000	0,000981
572,000000	0,000922
571,000000	0,001143
570,000000	0,001012
569,000000	0,000880
568,000000	0,001189
567,000000	0,001198
566,000000	0,000901
565,000000	0,001283
564,000000	0,001249
563,000000	0,000877
562,000000	0,001300
561,000000	0,000801
560,000000	0,001157
559,000000	0,001084
558,000000	0,001326
557,000000	0,001126
556,000000	0,001359
555,000000	0,001317
554,000000	0,001199
553,000000	0,001017
552,000000	0,001127
551,000000	0,001296
550,000000	0,001465
549,000000	0,001041
548,000000	0,001308
547,000000	0,001333
546,000000	0,001269
545,000000	0,001180
544,000000	0,001159
543,000000	0,000994
542,000000	0,001011
541,000000	0,001125
540,000000	0,001375
539,000000	0,000947
538,000000	0,001450
537,000000	0,001226
536,000000	0,001218
535,000000	0,001281
534,000000	0,001378
533,000000	0,001137
532,000000	0,001217
531,000000	0,001289
530,000000	0,001230
529,000000	0,001183
528,000000	0,001369
527,000000	0,000989
526,000000	0,001353
525,000000	0,001180
524,000000	0,001458
523,000000	0,001014
522,000000	0,001039
521,000000	0,001381
520,000000	0,001335
519,000000	0,001013
518,000000	0,001157
517,000000	0,001436
516,000000	0,001182
515,000000	0,001119
514,000000	0,001001
513,000000	0,001055
512,000000	0,000974
511,000000	0,001038
510,000000	0,001033
509,000000	0,001471
508,000000	0,001066
507,000000	0,001399
506,000000	0,001413
505,000000	0,001458
504,000000	0,001496
503,000000	0,001369
502,000000	0,001268
501,000000	0,001065
500,000000	0,001389
499,000000	0,001233
498,000000	0,001318
497,000000	0,001481
496,000000	0,001132
495,000000	0,001363
494,000000	0,001308
493,000000	0,001258
492,000000	0,001253
491,000000	0,001429
490,000000	0,000954
489,000000	0,001454
488,000000	0,001390
487,000000	0,001349
486,000000	0,001449
485,000000	0,001491
484,000000	0,001159
483,000000	0,001138
482,000000	0,000814
481,000000	0,001490
480,000000	0,001032
479,000000	0,001338
478,000000	0,001502
477,000000	0,001667
476,000000	0,001251
475,000000	0,001360
474,000000	0,001125
473,000000	0,001331
472,000000	0,001411
471,000000	0,001588
470,000000	0,000962
469,000000	0,001404
468,000000	0,001464
467,000000	0,001267
466,000000	0,001251
465,000000	0,001470
464,000000	0,001382
463,000000	0,001400
462,000000	0,001649
461,000000	0,001544
460,000000	0,001422
459,000000	0,001266
458,000000	0,001576
457,000000	0,001353
456,000000	0,001341
455,000000	0,001447
454,000000	0,001531
453,000000	0,001612
452,000000	0,001366
451,000000	0,001528
450,000000	0,001431
449,000000	0,001681
448,000000	0,001271
447,000000	0,000924
446,000000	0,001297
445,000000	0,001645
444,000000	0,001095
443,000000	0,001177
442,000000	0,001700
441,000000	0,001526
440,000000	0,001391
439,000000	0,001545
438,000000	0,001811
437,000000	0,001534
436,000000	0,001893
435,000000	0,001732
434,000000	0,001537
433,000000	0,001460
432,000000	0,001524
431,000000	0,001977
430,000000	0,001119
429,000000	0,001712
428,000000	0,001384
427,000000	0,001640
426,000000	0,001551
425,000000	0,001354
424,000000	0,001645
423,000000	0,001256
422,000000	0,001708
421,000000	0,001416
420,000000	0,001728
419,000000	0,001775
418,000000	0,001514
417,000000	0,001808
416,000000	0,001800
415,000000	0,001808
414,000000	0,001868
413,000000	0,001803
412,000000	0,002102
411,000000	0,001811
410,000000	0,001947
409,000000	0,001717
408,000000	0,001764
407,000000	0,001746
406,000000	0,001951
405,000000	0,001729
404,000000	0,001925
403,000000	0,001860
402,000000	0,001655
401,000000	0,001953
400,000000	0,002069
399,000000	0,002153
398,000000	0,001918
397,000000	0,001474
396,000000	0,001853
395,000000	0,002104
394,000000	0,001848
393,000000	0,002316
392,000000	0,002324
391,000000	0,002252
390,000000	0,001979
