PE UV       SUBTECH     SPECTRUM    ASCII       PEDS        4.00        
   -1
100% or 0 Absorbance Baseline.Correction.Raw.asc
20/07/16
14:25:50.00
20/07/16
14:25:50.00
Analyst

200,000000
1
Lambda 25
501s11081509
PerkinElmer UV WinLab 6.0.3.0730 / Lambda25 1.27

480
0
1
0
0
Both on
0
1
1
None
0
0
0
0
 
 
0
0
0
0
0
 
 
 
0
 
0
326
0
 
0
 
 
 
0
0
0
 
0
 
 
 
0
 
 
0
0
0
0
0
 
 
 
 
0
0


#HDR
-1
-1
#GR
nm
A
1.0
0.0
700,000000
-1,000000
501
8
0,023820
-0,025347
#DATA
700,000000	-0,025347
699,000000	-0,025310
698,000000	-0,025101
697,000000	-0,024970
696,000000	-0,024674
695,000000	-0,024617
694,000000	-0,024535
693,000000	-0,024350
692,000000	-0,024502
691,000000	-0,024174
690,000000	-0,024338
689,000000	-0,023894
688,000000	-0,023886
687,000000	-0,023553
686,000000	-0,023471
685,000000	-0,023331
684,000000	-0,023265
683,000000	-0,022643
682,000000	-0,022482
681,000000	-0,022346
680,000000	-0,022494
679,000000	-0,022334
678,000000	-0,022111
677,000000	-0,022239
676,000000	-0,022185
675,000000	-0,021987
674,000000	-0,021747
673,000000	-0,021735
672,000000	-0,021677
671,000000	-0,021454
670,000000	-0,021396
669,000000	-0,021652
668,000000	-0,021599
667,000000	-0,021239
666,000000	-0,021326
665,000000	-0,020999
664,000000	-0,020937
663,000000	-0,020709
662,000000	-0,020937
661,000000	-0,020705
660,000000	-0,020684
659,000000	-0,020568
658,000000	-0,020510
657,000000	-0,020506
656,000000	-0,020548
655,000000	-0,020440
654,000000	-0,020457
653,000000	-0,020158
652,000000	-0,020162
651,000000	-0,019976
650,000000	-0,019847
649,000000	-0,019839
648,000000	-0,019814
647,000000	-0,019677
646,000000	-0,019631
645,000000	-0,019665
644,000000	-0,019449
643,000000	-0,019590
642,000000	-0,019640
641,000000	-0,019274
640,000000	-0,019403
639,000000	-0,019266
638,000000	-0,019370
637,000000	-0,019241
636,000000	-0,019420
635,000000	-0,019100
634,000000	-0,019120
633,000000	-0,019179
632,000000	-0,019183
631,000000	-0,019199
630,000000	-0,019262
629,000000	-0,019054
628,000000	-0,019208
627,000000	-0,019091
626,000000	-0,019208
625,000000	-0,019108
624,000000	-0,018967
623,000000	-0,019191
622,000000	-0,018933
621,000000	-0,019017
620,000000	-0,018850
619,000000	-0,019129
618,000000	-0,018908
617,000000	-0,019112
616,000000	-0,019104
615,000000	-0,018954
614,000000	-0,018933
613,000000	-0,018983
612,000000	-0,018813
611,000000	-0,018933
610,000000	-0,018817
609,000000	-0,018867
608,000000	-0,018900
607,000000	-0,018967
606,000000	-0,018859
605,000000	-0,019137
604,000000	-0,018975
603,000000	-0,019029
602,000000	-0,019208
601,000000	-0,019108
600,000000	-0,019170
599,000000	-0,019062
598,000000	-0,019091
597,000000	-0,019050
596,000000	-0,019050
595,000000	-0,019199
594,000000	-0,019066
593,000000	-0,019025
592,000000	-0,019025
591,000000	-0,018572
590,000000	-0,018297
589,000000	-0,018109
588,000000	-0,017834
587,000000	-0,017384
586,000000	-0,016967
585,000000	-0,016636
584,000000	-0,015925
583,000000	-0,015381
582,000000	-0,015020
581,000000	-0,014437
580,000000	-0,014041
579,000000	-0,013469
578,000000	-0,013179
577,000000	-0,012841
576,000000	-0,012432
575,000000	-0,012154
574,000000	-0,011879
573,000000	-0,011312
572,000000	-0,011202
571,000000	-0,010876
570,000000	-0,010754
569,000000	-0,011008
568,000000	-0,010834
567,000000	-0,010775
566,000000	-0,010758
565,000000	-0,010927
564,000000	-0,010779
563,000000	-0,010673
562,000000	-0,010520
561,000000	-0,010062
560,000000	-0,010304
559,000000	-0,010906
558,000000	-0,010902
557,000000	-0,010999
556,000000	-0,010796
555,000000	-0,011008
554,000000	-0,010745
553,000000	-0,010864
552,000000	-0,010711
551,000000	-0,010864
550,000000	-0,010804
549,000000	-0,010694
548,000000	-0,010919
547,000000	-0,010974
546,000000	-0,011262
545,000000	-0,011164
544,000000	-0,011185
543,000000	-0,011359
542,000000	-0,011405
541,000000	-0,011236
540,000000	-0,011410
539,000000	-0,011422
538,000000	-0,011427
537,000000	-0,011562
536,000000	-0,011422
535,000000	-0,011410
534,000000	-0,011460
533,000000	-0,011291
532,000000	-0,011685
531,000000	-0,011625
530,000000	-0,011600
529,000000	-0,011376
528,000000	-0,011524
527,000000	-0,011257
526,000000	-0,011558
525,000000	-0,011651
524,000000	-0,011528
523,000000	-0,011346
522,000000	-0,011651
521,000000	-0,011609
520,000000	-0,011740
519,000000	-0,011951
518,000000	-0,011841
517,000000	-0,011921
516,000000	-0,011985
515,000000	-0,011816
514,000000	-0,011871
513,000000	-0,012230
512,000000	-0,011942
511,000000	-0,012348
510,000000	-0,012331
509,000000	-0,012449
508,000000	-0,012453
507,000000	-0,012474
506,000000	-0,012512
505,000000	-0,012572
504,000000	-0,012799
503,000000	-0,013035
502,000000	-0,012875
501,000000	-0,013023
500,000000	-0,013124
499,000000	-0,013297
498,000000	-0,013267
497,000000	-0,013326
496,000000	-0,013351
495,000000	-0,013680
494,000000	-0,013591
493,000000	-0,013772
492,000000	-0,013999
491,000000	-0,013945
490,000000	-0,014012
489,000000	-0,014138
488,000000	-0,014058
487,000000	-0,014100
486,000000	-0,013957
485,000000	-0,014760
484,000000	-0,014529
483,000000	-0,014705
482,000000	-0,014814
481,000000	-0,014697
480,000000	-0,014919
479,000000	-0,014701
478,000000	-0,014764
477,000000	-0,014630
476,000000	-0,014898
475,000000	-0,014453
474,000000	-0,014575
473,000000	-0,014537
472,000000	-0,014403
471,000000	-0,014340
470,000000	-0,013966
469,000000	-0,013776
468,000000	-0,013882
467,000000	-0,013545
466,000000	-0,013242
465,000000	-0,013099
464,000000	-0,012884
463,000000	-0,012846
462,000000	-0,012605
461,000000	-0,012268
460,000000	-0,012141
459,000000	-0,011926
458,000000	-0,012048
457,000000	-0,011410
456,000000	-0,011376
455,000000	-0,011325
454,000000	-0,011427
453,000000	-0,011283
452,000000	-0,011253
451,000000	-0,011321
450,000000	-0,011169
449,000000	-0,010681
448,000000	-0,010715
447,000000	-0,010364
446,000000	-0,010062
445,000000	-0,009854
444,000000	-0,009761
443,000000	-0,009493
442,000000	-0,009362
441,000000	-0,009047
440,000000	-0,008953
439,000000	-0,008596
438,000000	-0,008123
437,000000	-0,007364
436,000000	-0,007739
435,000000	-0,007837
434,000000	-0,007479
433,000000	-0,007487
432,000000	-0,007342
431,000000	-0,007453
430,000000	-0,007423
429,000000	-0,007253
428,000000	-0,007090
427,000000	-0,006902
426,000000	-0,006616
425,000000	-0,006748
424,000000	-0,006753
423,000000	-0,006761
422,000000	-0,006988
421,000000	-0,006475
420,000000	-0,006462
419,000000	-0,006659
418,000000	-0,006487
417,000000	-0,006637
416,000000	-0,006783
415,000000	-0,006988
414,000000	-0,007005
413,000000	-0,006945
412,000000	-0,007189
411,000000	-0,007180
410,000000	-0,007278
409,000000	-0,007423
408,000000	-0,007487
407,000000	-0,007342
406,000000	-0,007577
405,000000	-0,007850
404,000000	-0,007812
403,000000	-0,008153
402,000000	-0,007995
401,000000	-0,008038
400,000000	-0,008213
399,000000	-0,007889
398,000000	-0,008396
397,000000	-0,008379
396,000000	-0,008506
395,000000	-0,008609
394,000000	-0,008498
393,000000	-0,008813
392,000000	-0,008996
391,000000	-0,008919
390,000000	-0,008962
389,000000	-0,008958
388,000000	-0,009128
387,000000	-0,009251
386,000000	-0,009447
385,000000	-0,009425
384,000000	-0,009068
383,000000	-0,011143
382,000000	-0,010864
381,000000	-0,009854
380,000000	-0,011778
379,000000	-0,009141
378,000000	-0,009939
377,000000	-0,009880
376,000000	-0,009629
375,000000	-0,010296
374,000000	-0,009927
373,000000	-0,010626
372,000000	-0,011020
371,000000	-0,011321
370,000000	-0,010427
369,000000	-0,011164
368,000000	-0,010236
367,000000	-0,009319
366,000000	-0,011511
365,000000	-0,010775
364,000000	-0,010855
363,000000	-0,010754
362,000000	-0,010266
361,000000	-0,011672
360,000000	-0,011609
359,000000	-0,010304
358,000000	-0,011486
357,000000	-0,010813
356,000000	-0,012449
355,000000	-0,010974
354,000000	-0,011245
353,000000	-0,012580
352,000000	-0,011499
351,000000	-0,012073
350,000000	-0,011452
349,000000	-0,012065
348,000000	-0,012204
347,000000	-0,011126
346,000000	-0,011917
345,000000	-0,011160
344,000000	-0,010317
343,000000	-0,010164
342,000000	-0,011630
341,000000	-0,010317
340,000000	-0,009676
339,000000	-0,009782
338,000000	-0,010826
337,000000	-0,010241
336,000000	-0,009910
335,000000	-0,009476
334,000000	-0,009047
333,000000	-0,009111
332,000000	-0,009357
331,000000	-0,010275
330,000000	-0,010215
329,000000	-0,010707
328,000000	-0,010262
327,000000	-0,011207
326,000000	0,003300
325,000000	0,009151
324,000000	0,009200
323,000000	0,009146
322,000000	0,009191
321,000000	0,009310
320,000000	0,009177
319,000000	0,009213
318,000000	0,009062
317,000000	0,009133
316,000000	0,008960
315,000000	0,009044
314,000000	0,009195
313,000000	0,009035
312,000000	0,008960
311,000000	0,009239
310,000000	0,009084
309,000000	0,009058
308,000000	0,009213
307,000000	0,009000
306,000000	0,009133
305,000000	0,009208
304,000000	0,009191
303,000000	0,009333
302,000000	0,009470
301,000000	0,009448
300,000000	0,009599
299,000000	0,009652
298,000000	0,009794
297,000000	0,009914
296,000000	0,009954
295,000000	0,010154
294,000000	0,010368
293,000000	0,010492
292,000000	0,010782
291,000000	0,010933
290,000000	0,011089
289,000000	0,011347
288,000000	0,011548
287,000000	0,011749
286,000000	0,011999
285,000000	0,012231
284,000000	0,012588
283,000000	0,012656
282,000000	0,012919
281,000000	0,013166
280,000000	0,013488
279,000000	0,013631
278,000000	0,013726
277,000000	0,014017
276,000000	0,014183
275,000000	0,014264
274,000000	0,014542
273,000000	0,014753
272,000000	0,014982
271,000000	0,015185
270,000000	0,015257
269,000000	0,015486
268,000000	0,015603
267,000000	0,015873
266,000000	0,015945
265,000000	0,016148
264,000000	0,016491
263,000000	0,016766
262,000000	0,016987
261,000000	0,017082
260,000000	0,017353
259,000000	0,017557
258,000000	0,017733
257,000000	0,018050
256,000000	0,018231
255,000000	0,018453
254,000000	0,018648
253,000000	0,018934
252,000000	0,019297
251,000000	0,019510
250,000000	0,019810
249,000000	0,019983
248,000000	0,020156
247,000000	0,020311
246,000000	0,020670
245,000000	0,020766
244,000000	0,021030
243,000000	0,021208
242,000000	0,021372
241,000000	0,021450
240,000000	0,021600
239,000000	0,021696
238,000000	0,021902
237,000000	0,021988
236,000000	0,022116
235,000000	0,022304
234,000000	0,022564
233,000000	0,022816
232,000000	0,023022
231,000000	0,023237
230,000000	0,023393
229,000000	0,023402
228,000000	0,023297
227,000000	0,023050
226,000000	0,022560
225,000000	0,022007
224,000000	0,021363
223,000000	0,020839
222,000000	0,020647
221,000000	0,020511
220,000000	0,020625
219,000000	0,020725
218,000000	0,020866
217,000000	0,020925
216,000000	0,020934
215,000000	0,020884
214,000000	0,021058
213,000000	0,021021
212,000000	0,021094
211,000000	0,021089
210,000000	0,021331
209,000000	0,021719
208,000000	0,021824
207,000000	0,022094
206,000000	0,022468
205,000000	0,022876
204,000000	0,023008
203,000000	0,023160
202,000000	0,023480
201,000000	0,023820
200,000000	0,023664
