PE UV       SUBTECH     SPECTRUM    ASCII       PEDS        4.00        
   -1
branco_2.Sample.Raw.asc
20/07/16
14:41:48.00
20/07/16
14:41:48.00
Analyst

390,000000
1
Lambda 25
501s11081509
PerkinElmer UV WinLab 6.0.3.0730 / Lambda25 1.27

480
2
1
0
0
Both on
1
1
1
None
0
0
0
0
 
 
0
0
0
0
0
 
 
 
0
 
0
326
0
 
0
 
 
 
0
0
0
 
0
 
 
 
0
 
 
0
0
0
0
0
 
 
 
 
0
0


#HDR
-1
-1
#GR
nm
A
1.0
0.0
700,000000
-1,000000
311
8
0,002295
0,000371
#DATA
700,000000	0,001038
699,000000	0,001001
698,000000	0,000981
697,000000	0,000928
696,000000	0,000801
695,000000	0,000838
694,000000	0,000822
693,000000	0,000711
692,000000	0,001147
691,000000	0,000818
690,000000	0,001061
689,000000	0,000786
688,000000	0,000881
687,000000	0,000852
686,000000	0,000824
685,000000	0,000845
684,000000	0,000882
683,000000	0,000681
682,000000	0,000528
681,000000	0,000371
680,000000	0,000896
679,000000	0,000508
678,000000	0,000698
677,000000	0,000690
676,000000	0,000752
675,000000	0,000632
674,000000	0,000748
673,000000	0,000699
672,000000	0,000782
671,000000	0,000463
670,000000	0,000563
669,000000	0,000864
668,000000	0,000943
667,000000	0,000683
666,000000	0,000964
665,000000	0,000654
664,000000	0,000775
663,000000	0,000522
662,000000	0,000974
661,000000	0,000501
660,000000	0,000945
659,000000	0,000709
658,000000	0,000705
657,000000	0,000526
656,000000	0,000742
655,000000	0,000593
654,000000	0,000522
653,000000	0,000473
652,000000	0,000660
651,000000	0,000556
650,000000	0,000423
649,000000	0,000457
648,000000	0,000573
647,000000	0,000378
646,000000	0,000669
645,000000	0,000823
644,000000	0,000436
643,000000	0,000902
642,000000	0,000731
641,000000	0,000461
640,000000	0,000436
639,000000	0,000432
638,000000	0,000632
637,000000	0,000665
636,000000	0,000948
635,000000	0,000757
634,000000	0,000815
633,000000	0,000994
632,000000	0,000907
631,000000	0,000961
630,000000	0,000969
629,000000	0,000907
628,000000	0,000815
627,000000	0,000795
626,000000	0,001061
625,000000	0,000982
624,000000	0,000924
623,000000	0,001144
622,000000	0,000899
621,000000	0,001045
620,000000	0,000937
619,000000	0,000961
618,000000	0,000995
617,000000	0,001194
616,000000	0,001057
615,000000	0,000941
614,000000	0,001087
613,000000	0,001078
612,000000	0,000912
611,000000	0,001187
610,000000	0,000703
609,000000	0,000866
608,000000	0,000982
607,000000	0,000632
606,000000	0,000662
605,000000	0,001003
604,000000	0,000907
603,000000	0,000807
602,000000	0,001365
601,000000	0,000969
600,000000	0,000857
599,000000	0,000882
598,000000	0,000757
597,000000	0,000890
596,000000	0,000970
595,000000	0,000973
594,000000	0,000940
593,000000	0,001086
592,000000	0,001220
591,000000	0,000946
590,000000	0,000783
589,000000	0,000771
588,000000	0,000563
587,000000	0,000593
586,000000	0,000560
585,000000	0,001029
584,000000	0,001002
583,000000	0,000885
582,000000	0,000953
581,000000	0,000841
580,000000	0,000913
579,000000	0,000847
578,000000	0,000941
577,000000	0,000891
576,000000	0,000688
575,000000	0,000930
574,000000	0,000880
573,000000	0,000690
572,000000	0,000877
571,000000	0,000886
570,000000	0,000670
569,000000	0,001043
568,000000	0,000623
567,000000	0,000797
566,000000	0,000980
565,000000	0,001158
564,000000	0,001256
563,000000	0,001082
562,000000	0,000917
561,000000	0,000531
560,000000	0,000649
559,000000	0,001311
558,000000	0,001162
557,000000	0,001285
556,000000	0,001286
555,000000	0,001459
554,000000	0,001133
553,000000	0,001171
552,000000	0,001065
551,000000	0,001200
550,000000	0,001039
549,000000	0,000963
548,000000	0,000861
547,000000	0,000797
546,000000	0,001123
545,000000	0,000890
544,000000	0,001017
543,000000	0,000928
542,000000	0,000949
541,000000	0,000690
540,000000	0,001016
539,000000	0,001161
538,000000	0,001212
537,000000	0,001008
536,000000	0,001093
535,000000	0,001046
534,000000	0,001088
533,000000	0,000902
532,000000	0,001215
531,000000	0,000999
530,000000	0,000927
529,000000	0,000830
528,000000	0,001126
527,000000	0,000796
526,000000	0,001211
525,000000	0,001130
524,000000	0,001080
523,000000	0,000775
522,000000	0,000974
521,000000	0,000986
520,000000	0,000961
519,000000	0,001388
518,000000	0,001164
517,000000	0,001113
516,000000	0,001163
515,000000	0,001054
514,000000	0,000884
513,000000	0,001205
512,000000	0,000935
511,000000	0,000976
510,000000	0,001298
509,000000	0,001107
508,000000	0,001141
507,000000	0,001251
506,000000	0,001179
505,000000	0,001187
504,000000	0,001330
503,000000	0,001440
502,000000	0,001060
501,000000	0,001224
500,000000	0,001101
499,000000	0,001156
498,000000	0,001181
497,000000	0,001139
496,000000	0,001168
495,000000	0,001247
494,000000	0,001024
493,000000	0,001078
492,000000	0,001120
491,000000	0,001019
490,000000	0,001061
489,000000	0,001086
488,000000	0,001061
487,000000	0,001061
486,000000	0,001200
485,000000	0,001754
484,000000	0,001258
483,000000	0,001303
482,000000	0,001232
481,000000	0,001287
480,000000	0,001501
479,000000	0,001350
478,000000	0,001413
477,000000	0,001278
476,000000	0,001383
475,000000	0,001270
474,000000	0,001220
473,000000	0,001304
472,000000	0,001275
471,000000	0,001469
470,000000	0,001276
469,000000	0,001239
468,000000	0,001492
467,000000	0,001404
466,000000	0,001228
465,000000	0,001321
464,000000	0,001241
463,000000	0,001533
462,000000	0,001352
461,000000	0,001192
460,000000	0,001099
459,000000	0,001435
458,000000	0,001659
457,000000	0,001114
456,000000	0,001131
455,000000	0,001157
454,000000	0,001475
453,000000	0,001501
452,000000	0,001322
451,000000	0,001594
450,000000	0,001679
449,000000	0,001231
448,000000	0,001613
447,000000	0,001300
446,000000	0,001249
445,000000	0,001127
444,000000	0,001237
443,000000	0,001242
442,000000	0,001298
441,000000	0,001376
440,000000	0,001432
439,000000	0,001463
438,000000	0,001323
437,000000	0,000560
436,000000	0,001303
435,000000	0,001414
434,000000	0,001248
433,000000	0,001047
432,000000	0,000992
431,000000	0,001548
430,000000	0,001420
429,000000	0,001339
428,000000	0,001134
427,000000	0,001061
426,000000	0,000484
425,000000	0,000698
424,000000	0,000955
423,000000	0,000980
422,000000	0,001031
421,000000	0,001672
420,000000	0,001663
419,000000	0,001821
418,000000	0,001612
417,000000	0,001573
416,000000	0,001864
415,000000	0,001820
414,000000	0,001919
413,000000	0,001880
412,000000	0,002124
411,000000	0,001982
410,000000	0,001956
409,000000	0,001818
408,000000	0,002002
407,000000	0,001531
406,000000	0,001779
405,000000	0,002086
404,000000	0,002202
403,000000	0,002153
402,000000	0,001812
401,000000	0,001850
400,000000	0,002295
399,000000	0,001769
398,000000	0,001895
397,000000	0,001896
396,000000	0,002083
395,000000	0,001822
394,000000	0,001942
393,000000	0,002048
392,000000	0,001931
391,000000	0,001979
390,000000	0,001931
