PE UV       SUBTECH     SPECTRUM    ASCII       PEDS        4.00        
   -1
branco.Sample.Raw.asc
20/07/16
14:31:04.00
20/07/16
14:31:04.00
Analyst

390,000000
1
Lambda 25
501s11081509
PerkinElmer UV WinLab 6.0.3.0730 / Lambda25 1.27

480
2
1
0
0
Both on
1
1
1
None
0
0
0
0
 
 
0
0
0
0
0
 
 
 
0
 
0
326
0
 
0
 
 
 
0
0
0
 
0
 
 
 
0
 
 
0
0
0
0
0
 
 
 
 
0
0


#HDR
-1
-1
#GR
nm
A
1.0
0.0
700,000000
-1,000000
311
8
0,001372
-0,000013
#DATA
700,000000	0,000389
699,000000	0,000398
698,000000	0,000373
697,000000	0,000377
696,000000	0,000250
695,000000	0,000423
694,000000	0,000407
693,000000	0,000448
692,000000	0,000579
691,000000	0,000341
690,000000	0,000501
689,000000	0,000329
688,000000	0,000411
687,000000	0,000325
686,000000	0,000132
685,000000	0,000226
684,000000	0,000379
683,000000	0,000082
682,000000	0,000054
681,000000	0,000074
680,000000	0,000404
679,000000	0,000281
678,000000	0,000310
677,000000	0,000367
676,000000	0,000392
675,000000	0,000388
674,000000	0,000355
673,000000	0,000190
672,000000	0,000289
671,000000	0,000136
670,000000	0,000273
669,000000	0,000633
668,000000	0,000695
667,000000	0,000480
666,000000	0,000703
665,000000	0,000513
664,000000	0,000352
663,000000	0,000128
662,000000	0,000613
661,000000	0,000273
660,000000	0,000667
659,000000	0,000307
658,000000	0,000373
657,000000	0,000630
656,000000	0,000767
655,000000	0,000763
654,000000	0,000597
653,000000	0,000336
652,000000	0,000382
651,000000	0,000307
650,000000	0,000286
649,000000	0,000498
648,000000	0,000374
647,000000	0,000332
646,000000	0,000482
645,000000	0,000552
644,000000	0,000216
643,000000	0,000457
642,000000	0,000735
641,000000	0,000096
640,000000	0,000416
639,000000	0,000208
638,000000	0,000594
637,000000	0,000470
636,000000	0,000644
635,000000	0,000491
634,000000	0,000391
633,000000	0,000657
632,000000	0,000441
631,000000	0,000328
630,000000	0,000474
629,000000	0,000416
628,000000	0,000540
627,000000	0,000287
626,000000	0,000570
625,000000	0,000449
624,000000	0,000287
623,000000	0,000536
622,000000	0,000241
621,000000	0,000366
620,000000	0,000216
619,000000	0,000412
618,000000	0,000499
617,000000	0,000695
616,000000	0,000670
615,000000	0,000250
614,000000	0,000441
613,000000	0,000541
612,000000	0,000337
611,000000	0,000487
610,000000	0,000374
609,000000	0,000574
608,000000	0,000574
607,000000	0,000591
606,000000	0,000433
605,000000	0,000828
604,000000	0,000645
603,000000	0,000399
602,000000	0,000736
601,000000	0,000541
600,000000	0,000511
599,000000	0,000507
598,000000	0,000607
597,000000	0,000686
596,000000	0,000711
595,000000	0,000882
594,000000	0,000786
593,000000	0,000757
592,000000	0,000478
591,000000	0,000275
590,000000	0,000354
589,000000	0,000563
588,000000	0,000801
587,000000	0,000856
586,000000	0,000531
585,000000	0,000720
584,000000	0,000310
583,000000	0,000524
582,000000	0,000378
581,000000	0,000105
580,000000	0,000589
579,000000	0,000291
578,000000	0,000586
577,000000	0,000646
576,000000	0,000346
575,000000	0,000642
574,000000	0,000550
573,000000	0,000131
572,000000	0,000640
571,000000	0,000330
570,000000	0,000195
569,000000	0,000483
568,000000	0,000683
567,000000	0,000445
566,000000	0,000615
565,000000	0,000801
564,000000	0,000823
563,000000	0,000717
562,000000	0,000458
561,000000	0,000115
560,000000	0,000412
559,000000	0,001060
558,000000	0,000682
557,000000	0,000979
556,000000	0,000746
555,000000	0,000920
554,000000	0,000670
553,000000	0,000954
552,000000	0,000594
551,000000	0,000963
550,000000	0,000695
549,000000	0,000568
548,000000	0,000602
547,000000	0,000538
546,000000	0,000597
545,000000	0,000423
544,000000	0,000631
543,000000	0,000978
542,000000	0,000881
541,000000	0,000601
540,000000	0,000711
539,000000	0,000800
538,000000	0,000665
537,000000	0,000804
536,000000	0,000436
535,000000	0,000538
534,000000	0,000652
533,000000	0,000538
532,000000	0,000613
531,000000	0,000783
530,000000	0,000686
529,000000	0,000512
528,000000	0,000516
527,000000	0,000398
526,000000	0,000648
525,000000	0,000719
524,000000	0,000652
523,000000	0,000542
522,000000	0,000762
521,000000	0,000766
520,000000	0,000812
519,000000	0,000727
518,000000	0,000791
517,000000	0,000524
516,000000	0,000706
515,000000	0,000406
514,000000	0,000613
513,000000	0,000883
512,000000	0,000571
511,000000	0,000959
510,000000	0,000587
509,000000	0,000735
508,000000	0,000595
507,000000	0,000676
506,000000	0,000731
505,000000	0,000583
504,000000	0,000549
503,000000	0,000983
502,000000	0,000798
501,000000	0,000873
500,000000	0,000882
499,000000	0,000788
498,000000	0,000750
497,000000	0,000793
496,000000	0,000582
495,000000	0,000771
494,000000	0,000577
493,000000	0,000893
492,000000	0,000960
491,000000	0,000884
490,000000	0,000682
489,000000	0,000964
488,000000	0,000610
487,000000	0,000711
486,000000	0,000471
485,000000	0,001320
484,000000	0,000896
483,000000	0,001308
482,000000	0,001358
481,000000	0,000950
480,000000	0,001063
479,000000	0,000836
478,000000	0,000946
477,000000	0,000782
476,000000	0,000949
475,000000	0,000824
474,000000	0,000946
473,000000	0,000811
472,000000	0,001052
471,000000	0,001043
470,000000	0,000838
469,000000	0,000720
468,000000	0,001141
467,000000	0,000948
466,000000	0,001000
465,000000	0,000814
464,000000	0,000814
463,000000	0,000941
462,000000	0,000904
461,000000	0,000756
460,000000	0,000867
459,000000	0,000571
458,000000	0,000753
457,000000	0,000563
456,000000	0,000877
455,000000	0,000682
454,000000	0,001360
453,000000	0,001051
452,000000	0,000996
451,000000	0,000822
450,000000	0,001216
449,000000	0,000615
448,000000	0,000785
447,000000	0,000679
446,000000	0,000454
445,000000	0,000705
444,000000	0,000999
443,000000	0,000770
442,000000	0,001026
441,000000	0,000796
440,000000	0,000937
439,000000	0,000720
438,000000	0,000529
437,000000	-0,000013
436,000000	0,000734
435,000000	0,000944
434,000000	0,000957
433,000000	0,000743
432,000000	0,000551
431,000000	0,000867
430,000000	0,001060
429,000000	0,000727
428,000000	0,000890
427,000000	0,000586
426,000000	0,000347
425,000000	0,000351
424,000000	0,000586
423,000000	0,000424
422,000000	0,000372
421,000000	0,000861
420,000000	0,000887
419,000000	0,000809
418,000000	0,000835
417,000000	0,000899
416,000000	0,000985
415,000000	0,001147
414,000000	0,001083
413,000000	0,000740
412,000000	0,001206
411,000000	0,000949
410,000000	0,000902
409,000000	0,001163
408,000000	0,001064
407,000000	0,001009
406,000000	0,001227
405,000000	0,001294
404,000000	0,001269
403,000000	0,001310
402,000000	0,001136
401,000000	0,000892
400,000000	0,001255
399,000000	0,000905
398,000000	0,001220
397,000000	0,001088
396,000000	0,001117
395,000000	0,001190
394,000000	0,000887
393,000000	0,001185
392,000000	0,001372
391,000000	0,001231
390,000000	0,001193
