PE UV       SUBTECH     SPECTRUM    ASCII       PEDS        4.00        
   -1
1-24_100-1500.Sample.Raw.asc
20/10/06
16:14:13.00
20/10/06
16:14:13.00
Analyst

390,000000
1
Lambda 25
501s11081509
PerkinElmer UV WinLab 6.0.3.0730 / Lambda25 1.27

480
2
1
0
0
Both on
1
1
1
None
0
0
0
0
 
 
0
0
0
0
0
 
 
 
0
 
0
326
0
 
0
 
 
 
0
0
0
 
0
 
 
 
0
 
 
0
0
0
0
0
 
 
 
 
0
0


#HDR
-1
-1
#GR
nm
A
1.0
0.0
700,000000
-1,000000
311
8
1,784853
0,005474
#DATA
700,000000	0,005474
699,000000	0,005535
698,000000	0,005784
697,000000	0,005659
696,000000	0,005836
695,000000	0,006143
694,000000	0,006015
693,000000	0,006495
692,000000	0,006115
691,000000	0,006580
690,000000	0,006590
689,000000	0,007112
688,000000	0,007165
687,000000	0,007254
686,000000	0,007450
685,000000	0,007566
684,000000	0,008020
683,000000	0,008448
682,000000	0,008446
681,000000	0,008741
680,000000	0,009195
679,000000	0,009324
678,000000	0,009451
677,000000	0,009666
676,000000	0,010151
675,000000	0,009902
674,000000	0,010634
673,000000	0,010936
672,000000	0,011544
671,000000	0,011288
670,000000	0,012232
669,000000	0,012177
668,000000	0,012545
667,000000	0,012890
666,000000	0,013424
665,000000	0,013667
664,000000	0,013748
663,000000	0,014441
662,000000	0,014647
661,000000	0,015058
660,000000	0,015526
659,000000	0,015880
658,000000	0,016650
657,000000	0,016763
656,000000	0,017694
655,000000	0,017629
654,000000	0,018276
653,000000	0,018601
652,000000	0,019152
651,000000	0,019612
650,000000	0,020254
649,000000	0,020581
648,000000	0,021662
647,000000	0,022222
646,000000	0,023052
645,000000	0,023591
644,000000	0,024308
643,000000	0,025078
642,000000	0,025829
641,000000	0,026242
640,000000	0,027321
639,000000	0,028159
638,000000	0,028851
637,000000	0,029957
636,000000	0,030497
635,000000	0,031451
634,000000	0,032141
633,000000	0,033518
632,000000	0,034534
631,000000	0,035354
630,000000	0,036630
629,000000	0,037530
628,000000	0,039295
627,000000	0,039832
626,000000	0,041208
625,000000	0,042307
624,000000	0,043077
623,000000	0,044377
622,000000	0,045360
621,000000	0,047078
620,000000	0,048354
619,000000	0,050045
618,000000	0,051448
617,000000	0,052864
616,000000	0,054674
615,000000	0,055676
614,000000	0,057552
613,000000	0,059139
612,000000	0,060974
611,000000	0,062598
610,000000	0,064494
609,000000	0,066774
608,000000	0,068667
607,000000	0,070600
606,000000	0,072382
605,000000	0,074570
604,000000	0,076384
603,000000	0,078917
602,000000	0,081160
601,000000	0,083524
600,000000	0,086033
599,000000	0,088602
598,000000	0,091021
597,000000	0,093294
596,000000	0,096027
595,000000	0,098392
594,000000	0,101128
593,000000	0,104175
592,000000	0,107105
591,000000	0,109891
590,000000	0,112780
589,000000	0,115933
588,000000	0,118806
587,000000	0,122108
586,000000	0,125337
585,000000	0,128573
584,000000	0,131630
583,000000	0,135608
582,000000	0,139621
581,000000	0,143071
580,000000	0,147066
579,000000	0,150521
578,000000	0,154669
577,000000	0,158802
576,000000	0,162882
575,000000	0,166943
574,000000	0,171370
573,000000	0,175711
572,000000	0,179922
571,000000	0,184036
570,000000	0,188731
569,000000	0,193501
568,000000	0,198086
567,000000	0,202636
566,000000	0,207417
565,000000	0,212207
564,000000	0,217334
563,000000	0,222326
562,000000	0,227226
561,000000	0,232678
560,000000	0,238330
559,000000	0,248593
558,000000	0,253908
557,000000	0,259158
556,000000	0,265224
555,000000	0,270785
554,000000	0,277043
553,000000	0,283682
552,000000	0,289580
551,000000	0,296375
550,000000	0,302710
549,000000	0,309603
548,000000	0,315995
547,000000	0,322967
546,000000	0,330410
545,000000	0,337699
544,000000	0,344789
543,000000	0,352686
542,000000	0,359973
541,000000	0,367035
540,000000	0,374569
539,000000	0,381186
538,000000	0,388645
537,000000	0,396836
536,000000	0,404856
535,000000	0,413309
534,000000	0,422268
533,000000	0,430294
532,000000	0,439288
531,000000	0,447077
530,000000	0,456436
529,000000	0,464807
528,000000	0,474014
527,000000	0,483261
526,000000	0,493127
525,000000	0,501745
524,000000	0,512578
523,000000	0,521838
522,000000	0,531350
521,000000	0,540392
520,000000	0,550155
519,000000	0,560251
518,000000	0,569832
517,000000	0,580989
516,000000	0,591025
515,000000	0,600989
514,000000	0,611783
513,000000	0,621722
512,000000	0,631987
511,000000	0,641233
510,000000	0,652267
509,000000	0,662538
508,000000	0,674189
507,000000	0,685180
506,000000	0,696255
505,000000	0,708102
504,000000	0,718046
503,000000	0,729837
502,000000	0,740390
501,000000	0,752089
500,000000	0,764568
499,000000	0,775764
498,000000	0,788287
497,000000	0,801742
496,000000	0,814411
495,000000	0,826959
494,000000	0,840043
493,000000	0,852611
492,000000	0,864920
491,000000	0,877222
490,000000	0,891260
489,000000	0,904596
488,000000	0,918898
487,000000	0,931985
486,000000	0,946687
485,000000	0,959303
484,000000	0,973541
483,000000	0,985599
482,000000	0,999828
481,000000	1,014193
480,000000	1,026487
479,000000	1,041405
478,000000	1,055645
477,000000	1,070823
476,000000	1,083170
475,000000	1,098287
474,000000	1,111491
473,000000	1,126436
472,000000	1,139931
471,000000	1,153844
470,000000	1,167081
469,000000	1,182029
468,000000	1,196320
467,000000	1,210188
466,000000	1,225879
465,000000	1,243354
464,000000	1,253431
463,000000	1,269766
462,000000	1,284602
461,000000	1,298179
460,000000	1,311880
459,000000	1,325825
458,000000	1,343488
457,000000	1,355994
456,000000	1,371894
455,000000	1,382996
454,000000	1,393737
453,000000	1,404573
452,000000	1,417718
451,000000	1,427651
450,000000	1,439227
449,000000	1,457631
448,000000	1,465629
447,000000	1,482516
446,000000	1,495916
445,000000	1,499645
444,000000	1,513834
443,000000	1,516719
442,000000	1,533483
441,000000	1,545750
440,000000	1,554720
439,000000	1,563876
438,000000	1,578147
437,000000	1,592378
436,000000	1,601515
435,000000	1,605269
434,000000	1,628664
433,000000	1,628685
432,000000	1,645746
431,000000	1,657402
430,000000	1,678795
429,000000	1,686963
428,000000	1,693535
427,000000	1,704385
426,000000	1,706777
425,000000	1,738299
424,000000	1,736458
423,000000	1,760106
422,000000	1,784212
421,000000	1,657222
420,000000	1,672991
419,000000	1,676580
418,000000	1,688419
417,000000	1,696505
416,000000	1,709443
415,000000	1,713786
414,000000	1,721559
413,000000	1,730788
412,000000	1,738910
411,000000	1,740516
410,000000	1,742697
409,000000	1,761947
408,000000	1,763424
407,000000	1,763130
406,000000	1,773961
405,000000	1,777181
404,000000	1,773351
403,000000	1,770856
402,000000	1,784853
401,000000	1,781485
400,000000	1,779230
399,000000	1,774362
398,000000	1,779788
397,000000	1,783729
396,000000	1,781226
395,000000	1,774759
394,000000	1,781764
393,000000	1,774613
392,000000	1,780196
391,000000	1,775617
390,000000	1,774542
