PE UV       SUBTECH     SPECTRUM    ASCII       PEDS        4.00        
   -1
1-44_100-2900.Sample.Raw.asc
20/10/06
16:20:24.00
20/10/06
16:20:24.00
Analyst

390,000000
1
Lambda 25
501s11081509
PerkinElmer UV WinLab 6.0.3.0730 / Lambda25 1.27

480
2
1
0
0
Both on
1
1
1
None
0
0
0
0
 
 
0
0
0
0
0
 
 
 
0
 
0
326
0
 
0
 
 
 
0
0
0
 
0
 
 
 
0
 
 
0
0
0
0
0
 
 
 
 
0
0


#HDR
-1
-1
#GR
nm
A
1.0
0.0
700,000000
-1,000000
311
8
2,055034
0,015288
#DATA
700,000000	0,015288
699,000000	0,015767
698,000000	0,016195
697,000000	0,016311
696,000000	0,016728
695,000000	0,017249
694,000000	0,017300
693,000000	0,018086
692,000000	0,017702
691,000000	0,018458
690,000000	0,018754
689,000000	0,019291
688,000000	0,019736
687,000000	0,019911
686,000000	0,020286
685,000000	0,020579
684,000000	0,021363
683,000000	0,022142
682,000000	0,022687
681,000000	0,023106
680,000000	0,023227
679,000000	0,023823
678,000000	0,024488
677,000000	0,024629
676,000000	0,025349
675,000000	0,025421
674,000000	0,026099
673,000000	0,027144
672,000000	0,027673
671,000000	0,027565
670,000000	0,028670
669,000000	0,028802
668,000000	0,029617
667,000000	0,030097
666,000000	0,031022
665,000000	0,031333
664,000000	0,032106
663,000000	0,032813
662,000000	0,033343
661,000000	0,034168
660,000000	0,034846
659,000000	0,035324
658,000000	0,036112
657,000000	0,036704
656,000000	0,037986
655,000000	0,038619
654,000000	0,039407
653,000000	0,040198
652,000000	0,040714
651,000000	0,041693
650,000000	0,042358
649,000000	0,043391
648,000000	0,044576
647,000000	0,045468
646,000000	0,046985
645,000000	0,047693
644,000000	0,049043
643,000000	0,050148
642,000000	0,051373
641,000000	0,052225
640,000000	0,053662
639,000000	0,055027
638,000000	0,056196
637,000000	0,057647
636,000000	0,058809
635,000000	0,060094
634,000000	0,061554
633,000000	0,062718
632,000000	0,064560
631,000000	0,066096
630,000000	0,067755
629,000000	0,069151
628,000000	0,071865
627,000000	0,072579
626,000000	0,074496
625,000000	0,076177
624,000000	0,077424
623,000000	0,079307
622,000000	0,081006
621,000000	0,082970
620,000000	0,085236
619,000000	0,087321
618,000000	0,089522
617,000000	0,091419
616,000000	0,093973
615,000000	0,095499
614,000000	0,098171
613,000000	0,100687
612,000000	0,102927
611,000000	0,105567
610,000000	0,108232
609,000000	0,111108
608,000000	0,114106
607,000000	0,116751
606,000000	0,119257
605,000000	0,122329
604,000000	0,124979
603,000000	0,128301
602,000000	0,131752
601,000000	0,135053
600,000000	0,138545
599,000000	0,142017
598,000000	0,145693
597,000000	0,148704
596,000000	0,152651
595,000000	0,156313
594,000000	0,159720
593,000000	0,164165
592,000000	0,168278
591,000000	0,172572
590,000000	0,176445
589,000000	0,180940
588,000000	0,184898
587,000000	0,189699
586,000000	0,194244
585,000000	0,199113
584,000000	0,203640
583,000000	0,209026
582,000000	0,214527
581,000000	0,219724
580,000000	0,225296
579,000000	0,230491
578,000000	0,235773
577,000000	0,241919
576,000000	0,247840
575,000000	0,253414
574,000000	0,259690
573,000000	0,266116
572,000000	0,271974
571,000000	0,277939
570,000000	0,284567
569,000000	0,290890
568,000000	0,297616
567,000000	0,303750
566,000000	0,310616
565,000000	0,317299
564,000000	0,325252
563,000000	0,332731
562,000000	0,338516
561,000000	0,347131
560,000000	0,355445
559,000000	0,370238
558,000000	0,377156
557,000000	0,385059
556,000000	0,393412
555,000000	0,401549
554,000000	0,409994
553,000000	0,419592
552,000000	0,427823
551,000000	0,437084
550,000000	0,445687
549,000000	0,455063
548,000000	0,464073
547,000000	0,472397
546,000000	0,482506
545,000000	0,491669
544,000000	0,501106
543,000000	0,510193
542,000000	0,519308
541,000000	0,528422
540,000000	0,536847
539,000000	0,545351
538,000000	0,552899
537,000000	0,562140
536,000000	0,570909
535,000000	0,579640
534,000000	0,588413
533,000000	0,597406
532,000000	0,606556
531,000000	0,614880
530,000000	0,622990
529,000000	0,632110
528,000000	0,640212
527,000000	0,649867
526,000000	0,658084
525,000000	0,666453
524,000000	0,675937
523,000000	0,684634
522,000000	0,693904
521,000000	0,703031
520,000000	0,711739
519,000000	0,721421
518,000000	0,729748
517,000000	0,740700
516,000000	0,749878
515,000000	0,759117
514,000000	0,769484
513,000000	0,778916
512,000000	0,788190
511,000000	0,798287
510,000000	0,808564
509,000000	0,818796
508,000000	0,829438
507,000000	0,840248
506,000000	0,851981
505,000000	0,862602
504,000000	0,872885
503,000000	0,883981
502,000000	0,895467
501,000000	0,907372
500,000000	0,918409
499,000000	0,930928
498,000000	0,942861
497,000000	0,956465
496,000000	0,969348
495,000000	0,982907
494,000000	0,996202
493,000000	1,010039
492,000000	1,022307
491,000000	1,036434
490,000000	1,050972
489,000000	1,066087
488,000000	1,081125
487,000000	1,097124
486,000000	1,112833
485,000000	1,128339
484,000000	1,143321
483,000000	1,159826
482,000000	1,174202
481,000000	1,193458
480,000000	1,208593
479,000000	1,228187
478,000000	1,242698
477,000000	1,260989
476,000000	1,276685
475,000000	1,294987
474,000000	1,314636
473,000000	1,330287
472,000000	1,348403
471,000000	1,366562
470,000000	1,383351
469,000000	1,403814
468,000000	1,423353
467,000000	1,439493
466,000000	1,456497
465,000000	1,477332
464,000000	1,498039
463,000000	1,517454
462,000000	1,532474
461,000000	1,554711
460,000000	1,575151
459,000000	1,589468
458,000000	1,606388
457,000000	1,629523
456,000000	1,651106
455,000000	1,666915
454,000000	1,685140
453,000000	1,705281
452,000000	1,716211
451,000000	1,730269
450,000000	1,749663
449,000000	1,774352
448,000000	1,791089
447,000000	1,802746
446,000000	1,823923
445,000000	1,822951
444,000000	1,846729
443,000000	1,853768
442,000000	1,871893
441,000000	1,885642
440,000000	1,901710
439,000000	1,898760
438,000000	1,925401
437,000000	1,945561
436,000000	1,944483
435,000000	1,936164
434,000000	1,967367
433,000000	1,964629
432,000000	1,978279
431,000000	1,982754
430,000000	2,009963
429,000000	2,011681
428,000000	2,000081
427,000000	2,006280
426,000000	2,022613
425,000000	2,045442
424,000000	2,028500
423,000000	2,055034
422,000000	2,017294
421,000000	1,893807
420,000000	1,894304
419,000000	1,893922
418,000000	1,893708
417,000000	1,893133
416,000000	1,898400
415,000000	1,903786
414,000000	1,904671
413,000000	1,899144
412,000000	1,900512
411,000000	1,895318
410,000000	1,905210
409,000000	1,900312
408,000000	1,899722
407,000000	1,899245
406,000000	1,892282
405,000000	1,899575
404,000000	1,898796
403,000000	1,898398
402,000000	1,897423
401,000000	1,896666
400,000000	1,891053
399,000000	1,895686
398,000000	1,880882
397,000000	1,888794
396,000000	1,879811
395,000000	1,874462
394,000000	1,870834
393,000000	1,878728
392,000000	1,877427
391,000000	1,880007
390,000000	1,865614
