PE UV       SUBTECH     SPECTRUM    ASCII       PEDS        4.00        
   -1
1-44_100-1500.Sample.Raw.asc
20/10/06
16:17:46.00
20/10/06
16:17:46.00
Analyst

390,000000
1
Lambda 25
501s11081509
PerkinElmer UV WinLab 6.0.3.0730 / Lambda25 1.27

480
2
1
0
0
Both on
1
1
1
None
0
0
0
0
 
 
0
0
0
0
0
 
 
 
0
 
0
326
0
 
0
 
 
 
0
0
0
 
0
 
 
 
0
 
 
0
0
0
0
0
 
 
 
 
0
0


#HDR
-1
-1
#GR
nm
A
1.0
0.0
700,000000
-1,000000
311
8
2,477435
0,030602
#DATA
700,000000	0,030602
699,000000	0,031298
698,000000	0,032256
697,000000	0,032488
696,000000	0,033194
695,000000	0,034371
694,000000	0,034589
693,000000	0,035658
692,000000	0,035950
691,000000	0,036724
690,000000	0,037260
689,000000	0,038292
688,000000	0,039142
687,000000	0,039606
686,000000	0,040462
685,000000	0,040950
684,000000	0,042272
683,000000	0,044118
682,000000	0,044848
681,000000	0,045712
680,000000	0,046232
679,000000	0,047357
678,000000	0,048005
677,000000	0,049095
676,000000	0,050027
675,000000	0,050427
674,000000	0,051749
673,000000	0,053083
672,000000	0,054058
671,000000	0,054822
670,000000	0,056493
669,000000	0,057150
668,000000	0,058588
667,000000	0,059547
666,000000	0,060854
665,000000	0,061944
664,000000	0,062885
663,000000	0,064622
662,000000	0,065583
661,000000	0,066930
660,000000	0,068156
659,000000	0,069492
658,000000	0,070895
657,000000	0,072203
656,000000	0,074014
655,000000	0,075390
654,000000	0,076981
653,000000	0,078755
652,000000	0,080089
651,000000	0,081799
650,000000	0,083551
649,000000	0,085392
648,000000	0,087417
647,000000	0,089020
646,000000	0,091582
645,000000	0,093564
644,000000	0,095799
643,000000	0,097699
642,000000	0,100267
641,000000	0,102653
640,000000	0,104769
639,000000	0,107157
638,000000	0,109704
637,000000	0,112415
636,000000	0,114833
635,000000	0,117477
634,000000	0,120178
633,000000	0,122813
632,000000	0,126300
631,000000	0,128967
630,000000	0,132035
629,000000	0,135023
628,000000	0,138878
627,000000	0,141399
626,000000	0,144666
625,000000	0,148108
624,000000	0,150862
623,000000	0,154501
622,000000	0,157860
621,000000	0,161698
620,000000	0,165381
619,000000	0,169645
618,000000	0,173533
617,000000	0,177736
616,000000	0,182267
615,000000	0,185974
614,000000	0,190545
613,000000	0,195154
612,000000	0,199975
611,000000	0,205340
610,000000	0,210064
609,000000	0,215776
608,000000	0,221049
607,000000	0,226579
606,000000	0,231568
605,000000	0,237687
604,000000	0,242908
603,000000	0,248858
602,000000	0,255253
601,000000	0,261675
600,000000	0,268367
599,000000	0,275139
598,000000	0,281922
597,000000	0,288332
596,000000	0,295094
595,000000	0,302532
594,000000	0,309397
593,000000	0,317584
592,000000	0,325132
591,000000	0,333213
590,000000	0,340914
589,000000	0,349223
588,000000	0,357376
587,000000	0,366090
586,000000	0,375086
585,000000	0,384504
584,000000	0,393251
583,000000	0,403349
582,000000	0,413427
581,000000	0,423549
580,000000	0,434394
579,000000	0,444119
578,000000	0,454811
577,000000	0,465935
576,000000	0,477142
575,000000	0,488610
574,000000	0,499932
573,000000	0,511804
572,000000	0,522624
571,000000	0,533577
570,000000	0,546305
569,000000	0,558584
568,000000	0,571273
567,000000	0,583716
566,000000	0,595824
565,000000	0,609415
564,000000	0,623559
563,000000	0,636282
562,000000	0,649484
561,000000	0,664596
560,000000	0,680026
559,000000	0,710267
558,000000	0,723075
557,000000	0,737843
556,000000	0,753781
555,000000	0,769529
554,000000	0,785646
553,000000	0,803747
552,000000	0,819795
551,000000	0,837876
550,000000	0,855088
549,000000	0,871504
548,000000	0,887953
547,000000	0,905368
546,000000	0,921942
545,000000	0,939961
544,000000	0,957297
543,000000	0,974534
542,000000	0,993477
541,000000	1,008896
540,000000	1,024902
539,000000	1,040548
538,000000	1,055886
537,000000	1,073330
536,000000	1,089124
535,000000	1,106118
534,000000	1,122547
533,000000	1,139364
532,000000	1,155301
531,000000	1,169608
530,000000	1,185810
529,000000	1,202075
528,000000	1,217383
527,000000	1,233170
526,000000	1,250903
525,000000	1,265562
524,000000	1,284679
523,000000	1,300861
522,000000	1,315066
521,000000	1,332274
520,000000	1,349032
519,000000	1,365496
518,000000	1,380283
517,000000	1,398396
516,000000	1,417510
515,000000	1,433310
514,000000	1,451630
513,000000	1,471240
512,000000	1,488665
511,000000	1,502615
510,000000	1,522667
509,000000	1,541777
508,000000	1,554024
507,000000	1,570175
506,000000	1,597986
505,000000	1,615102
504,000000	1,634996
503,000000	1,653832
502,000000	1,669763
501,000000	1,690449
500,000000	1,710522
499,000000	1,718878
498,000000	1,749350
497,000000	1,771361
496,000000	1,786454
495,000000	1,815731
494,000000	1,838185
493,000000	1,855525
492,000000	1,877071
491,000000	1,888255
490,000000	1,916998
489,000000	1,941662
488,000000	1,962840
487,000000	1,984945
486,000000	2,008369
485,000000	2,032333
484,000000	2,052999
483,000000	2,062916
482,000000	2,087440
481,000000	2,110648
480,000000	2,138962
479,000000	2,153233
478,000000	2,175542
477,000000	2,189033
476,000000	2,212058
475,000000	2,199985
474,000000	2,241852
473,000000	2,273801
472,000000	2,268474
471,000000	2,276240
470,000000	2,299425
469,000000	2,306053
468,000000	2,339222
467,000000	2,296316
466,000000	2,349122
465,000000	2,375275
464,000000	2,356194
463,000000	2,367853
462,000000	2,387887
461,000000	2,388311
460,000000	2,377100
459,000000	2,363216
458,000000	2,383858
457,000000	2,448419
456,000000	2,433438
455,000000	2,434404
454,000000	2,423969
453,000000	2,391570
452,000000	2,427227
451,000000	2,407530
450,000000	2,412611
449,000000	2,421443
448,000000	2,441562
447,000000	2,432280
446,000000	2,469017
445,000000	2,477435
444,000000	2,391393
443,000000	2,398594
442,000000	2,472061
441,000000	2,402038
440,000000	2,465192
439,000000	2,404787
438,000000	2,429906
437,000000	2,439145
436,000000	2,424235
435,000000	2,325901
434,000000	2,415793
433,000000	2,411394
432,000000	2,435954
431,000000	2,408859
430,000000	2,453903
429,000000	2,366835
428,000000	2,384153
427,000000	2,380216
426,000000	2,408799
425,000000	2,429173
424,000000	2,440111
423,000000	2,440316
422,000000	2,446087
421,000000	2,204308
420,000000	2,214852
419,000000	2,211317
418,000000	2,206600
417,000000	2,222793
416,000000	2,225168
415,000000	2,215198
414,000000	2,226753
413,000000	2,210442
412,000000	2,215330
411,000000	2,209272
410,000000	2,229112
409,000000	2,211625
408,000000	2,224045
407,000000	2,232174
406,000000	2,210266
405,000000	2,224951
404,000000	2,223757
403,000000	2,212077
402,000000	2,208320
401,000000	2,218315
400,000000	2,217667
399,000000	2,225437
398,000000	2,215866
397,000000	2,222997
396,000000	2,223526
395,000000	2,207873
394,000000	2,198232
393,000000	2,207294
392,000000	2,199806
391,000000	2,206601
390,000000	2,206792
