PE UV       SUBTECH     SPECTRUM    ASCII       PEDS        4.00        
   -1
1.Sample.Raw.asc
20/10/06
14:39:44.00
20/10/06
14:39:44.00
Analyst

390,000000
1
Lambda 25
501s11081509
PerkinElmer UV WinLab 6.0.3.0730 / Lambda25 1.27

480
2
1
0
0
Both on
1
1
1
None
0
0
0
0
 
 
0
0
0
0
0
 
 
 
0
 
0
326
0
 
0
 
 
 
0
0
0
 
0
 
 
 
0
 
 
0
0
0
0
0
 
 
 
 
0
0


#HDR
-1
-1
#GR
nm
A
1.0
0.0
700,000000
-1,000000
311
8
0,501507
0,003444
#DATA
700,000000	0,004093
699,000000	0,003910
698,000000	0,004042
697,000000	0,003812
696,000000	0,003698
695,000000	0,004195
694,000000	0,003817
693,000000	0,004379
692,000000	0,003899
691,000000	0,004063
690,000000	0,004047
689,000000	0,004064
688,000000	0,004373
687,000000	0,004094
686,000000	0,004073
685,000000	0,003906
684,000000	0,004237
683,000000	0,003733
682,000000	0,003947
681,000000	0,003976
680,000000	0,003907
679,000000	0,003654
678,000000	0,004187
677,000000	0,003693
676,000000	0,003964
675,000000	0,003444
674,000000	0,004016
673,000000	0,004085
672,000000	0,004274
671,000000	0,003865
670,000000	0,004445
669,000000	0,004140
668,000000	0,004041
667,000000	0,004201
666,000000	0,004267
665,000000	0,004236
664,000000	0,004008
663,000000	0,004232
662,000000	0,004209
661,000000	0,004189
660,000000	0,004126
659,000000	0,003962
658,000000	0,004126
657,000000	0,003767
656,000000	0,004120
655,000000	0,003796
654,000000	0,003733
653,000000	0,004038
652,000000	0,003769
651,000000	0,004020
650,000000	0,003928
649,000000	0,003571
648,000000	0,004046
647,000000	0,003713
646,000000	0,004427
645,000000	0,003970
644,000000	0,004260
643,000000	0,004228
642,000000	0,004298
641,000000	0,004222
640,000000	0,004021
639,000000	0,004352
638,000000	0,004114
637,000000	0,004199
636,000000	0,004245
635,000000	0,004040
634,000000	0,004427
633,000000	0,004183
632,000000	0,004978
631,000000	0,004473
630,000000	0,004769
629,000000	0,004519
628,000000	0,005011
627,000000	0,004641
626,000000	0,004712
625,000000	0,004866
624,000000	0,004625
623,000000	0,004781
622,000000	0,004542
621,000000	0,004973
620,000000	0,005225
619,000000	0,005019
618,000000	0,005271
617,000000	0,004953
616,000000	0,005292
615,000000	0,004956
614,000000	0,005177
613,000000	0,005197
612,000000	0,005169
611,000000	0,005528
610,000000	0,004940
609,000000	0,005311
608,000000	0,005618
607,000000	0,005487
606,000000	0,005416
605,000000	0,005431
604,000000	0,005506
603,000000	0,005423
602,000000	0,005880
601,000000	0,005579
600,000000	0,005897
599,000000	0,005632
598,000000	0,005574
597,000000	0,005886
596,000000	0,005892
595,000000	0,006072
594,000000	0,005976
593,000000	0,006313
592,000000	0,006463
591,000000	0,006314
590,000000	0,006362
589,000000	0,006114
588,000000	0,006346
587,000000	0,006402
586,000000	0,006567
585,000000	0,006647
584,000000	0,006724
583,000000	0,006697
582,000000	0,006978
581,000000	0,006971
580,000000	0,006782
579,000000	0,007073
578,000000	0,007224
577,000000	0,007251
576,000000	0,007215
575,000000	0,007143
574,000000	0,007524
573,000000	0,007310
572,000000	0,007433
571,000000	0,007282
570,000000	0,007803
569,000000	0,007829
568,000000	0,007848
567,000000	0,008113
566,000000	0,008009
565,000000	0,007817
564,000000	0,008158
563,000000	0,008029
562,000000	0,008343
561,000000	0,008218
560,000000	0,008439
559,000000	0,008916
558,000000	0,009071
557,000000	0,009051
556,000000	0,009058
555,000000	0,009073
554,000000	0,009036
553,000000	0,009671
552,000000	0,009626
551,000000	0,009874
550,000000	0,009626
549,000000	0,010138
548,000000	0,010027
547,000000	0,010074
546,000000	0,010712
545,000000	0,010737
544,000000	0,010543
543,000000	0,010843
542,000000	0,010896
541,000000	0,010847
540,000000	0,010937
539,000000	0,011676
538,000000	0,011336
537,000000	0,011645
536,000000	0,011923
535,000000	0,011959
534,000000	0,011948
533,000000	0,012185
532,000000	0,012768
531,000000	0,012533
530,000000	0,012758
529,000000	0,012822
528,000000	0,013084
527,000000	0,013294
526,000000	0,013289
525,000000	0,013561
524,000000	0,013508
523,000000	0,014074
522,000000	0,013814
521,000000	0,014456
520,000000	0,014434
519,000000	0,014807
518,000000	0,014786
517,000000	0,015058
516,000000	0,015206
515,000000	0,015331
514,000000	0,015065
513,000000	0,015588
512,000000	0,015741
511,000000	0,016372
510,000000	0,016193
509,000000	0,016480
508,000000	0,016544
507,000000	0,016539
506,000000	0,017210
505,000000	0,017579
504,000000	0,017329
503,000000	0,017242
502,000000	0,017825
501,000000	0,017938
500,000000	0,018275
499,000000	0,018290
498,000000	0,018332
497,000000	0,018680
496,000000	0,018558
495,000000	0,018890
494,000000	0,018839
493,000000	0,019115
492,000000	0,019158
491,000000	0,019366
490,000000	0,020104
489,000000	0,019925
488,000000	0,020099
487,000000	0,019828
486,000000	0,020241
485,000000	0,020213
484,000000	0,020441
483,000000	0,020721
482,000000	0,020616
481,000000	0,021161
480,000000	0,021012
479,000000	0,021588
478,000000	0,020804
477,000000	0,021068
476,000000	0,021056
475,000000	0,021383
474,000000	0,021762
473,000000	0,021830
472,000000	0,022104
471,000000	0,022626
470,000000	0,022038
469,000000	0,022323
468,000000	0,022096
467,000000	0,022455
466,000000	0,022135
465,000000	0,022591
464,000000	0,022366
463,000000	0,023097
462,000000	0,023083
461,000000	0,023040
460,000000	0,023125
459,000000	0,023497
458,000000	0,023652
457,000000	0,023413
456,000000	0,023875
455,000000	0,024082
454,000000	0,023978
453,000000	0,024446
452,000000	0,024625
451,000000	0,025079
450,000000	0,025127
449,000000	0,025150
448,000000	0,025002
447,000000	0,025398
446,000000	0,025678
445,000000	0,025685
444,000000	0,026824
443,000000	0,026952
442,000000	0,027197
441,000000	0,027471
440,000000	0,027695
439,000000	0,028423
438,000000	0,028573
437,000000	0,029258
436,000000	0,030075
435,000000	0,030551
434,000000	0,031083
433,000000	0,031737
432,000000	0,032663
431,000000	0,033497
430,000000	0,034658
429,000000	0,035040
428,000000	0,036911
427,000000	0,038604
426,000000	0,039766
425,000000	0,041726
424,000000	0,042727
423,000000	0,044779
422,000000	0,046680
421,000000	0,048599
420,000000	0,051422
419,000000	0,053785
418,000000	0,056772
417,000000	0,059938
416,000000	0,063677
415,000000	0,067298
414,000000	0,071523
413,000000	0,076221
412,000000	0,081246
411,000000	0,087246
410,000000	0,093548
409,000000	0,100724
408,000000	0,108002
407,000000	0,116466
406,000000	0,125581
405,000000	0,135867
404,000000	0,146948
403,000000	0,159588
402,000000	0,173305
401,000000	0,189096
400,000000	0,206416
399,000000	0,226598
398,000000	0,246234
397,000000	0,267784
396,000000	0,291768
395,000000	0,320074
394,000000	0,350305
393,000000	0,383566
392,000000	0,421520
391,000000	0,460248
390,000000	0,501507
