PE UV       SUBTECH     SPECTRUM    ASCII       PEDS        4.00        
   -1
100% or 0 Absorbance Baseline.Correction.Raw.asc
20/10/06
14:06:32.00
20/10/06
14:06:32.00
Analyst

390,000000
1
Lambda 25
501s11081509
PerkinElmer UV WinLab 6.0.3.0730 / Lambda25 1.27

480
0
1
0
0
Both on
0
1
1
None
0
0
0
0
 
 
0
0
0
0
0
 
 
 
0
 
0
326
0
 
0
 
 
 
0
0
0
 
0
 
 
 
0
 
 
0
0
0
0
0
 
 
 
 
0
0


#HDR
-1
-1
#GR
nm
A
1.0
0.0
700,000000
-1,000000
311
8
-0,007082
-0,025121
#DATA
700,000000	-0,025121
699,000000	-0,024822
698,000000	-0,024867
697,000000	-0,024621
696,000000	-0,024416
695,000000	-0,024519
694,000000	-0,024087
693,000000	-0,024342
692,000000	-0,023800
691,000000	-0,023952
690,000000	-0,023853
689,000000	-0,023849
688,000000	-0,023705
687,000000	-0,023368
686,000000	-0,023384
685,000000	-0,023022
684,000000	-0,023166
683,000000	-0,022750
682,000000	-0,022626
681,000000	-0,022593
680,000000	-0,022445
679,000000	-0,022296
678,000000	-0,022267
677,000000	-0,022098
676,000000	-0,022119
675,000000	-0,021578
674,000000	-0,021896
673,000000	-0,022028
672,000000	-0,021933
671,000000	-0,021508
670,000000	-0,021921
669,000000	-0,021599
668,000000	-0,021388
667,000000	-0,021239
666,000000	-0,021334
665,000000	-0,021090
664,000000	-0,020937
663,000000	-0,021073
662,000000	-0,020929
661,000000	-0,020796
660,000000	-0,020784
659,000000	-0,020490
658,000000	-0,020378
657,000000	-0,020357
656,000000	-0,020564
655,000000	-0,020365
654,000000	-0,020382
653,000000	-0,020365
652,000000	-0,020067
651,000000	-0,020133
650,000000	-0,020055
649,000000	-0,019764
648,000000	-0,020017
647,000000	-0,019735
646,000000	-0,019988
645,000000	-0,019665
644,000000	-0,019938
643,000000	-0,019760
642,000000	-0,019926
641,000000	-0,019586
640,000000	-0,019498
639,000000	-0,019602
638,000000	-0,019474
637,000000	-0,019353
636,000000	-0,019332
635,000000	-0,019278
634,000000	-0,019199
633,000000	-0,019295
632,000000	-0,019507
631,000000	-0,019237
630,000000	-0,019399
629,000000	-0,019258
628,000000	-0,019548
627,000000	-0,019208
626,000000	-0,019270
625,000000	-0,019395
624,000000	-0,019125
623,000000	-0,019096
622,000000	-0,019000
621,000000	-0,019212
620,000000	-0,019249
619,000000	-0,019237
618,000000	-0,019258
617,000000	-0,019133
616,000000	-0,019249
615,000000	-0,018821
614,000000	-0,019025
613,000000	-0,019058
612,000000	-0,019012
611,000000	-0,019174
610,000000	-0,018809
609,000000	-0,019062
608,000000	-0,019071
607,000000	-0,019145
606,000000	-0,019100
605,000000	-0,019191
604,000000	-0,018962
603,000000	-0,019224
602,000000	-0,019324
601,000000	-0,019208
600,000000	-0,019307
599,000000	-0,019291
598,000000	-0,019258
597,000000	-0,019179
596,000000	-0,019370
595,000000	-0,019428
594,000000	-0,019116
593,000000	-0,019411
592,000000	-0,019237
591,000000	-0,019008
590,000000	-0,018667
589,000000	-0,018251
588,000000	-0,018014
587,000000	-0,017630
586,000000	-0,017392
585,000000	-0,016870
584,000000	-0,016273
583,000000	-0,016101
582,000000	-0,015573
581,000000	-0,014936
580,000000	-0,014474
579,000000	-0,014159
578,000000	-0,013591
577,000000	-0,013242
576,000000	-0,013069
575,000000	-0,012500
574,000000	-0,012323
573,000000	-0,011807
572,000000	-0,011625
571,000000	-0,011393
570,000000	-0,011376
569,000000	-0,011397
568,000000	-0,011300
567,000000	-0,011380
566,000000	-0,011181
565,000000	-0,010885
564,000000	-0,010859
563,000000	-0,011067
562,000000	-0,010872
561,000000	-0,010851
560,000000	-0,010622
559,000000	-0,011384
558,000000	-0,011190
557,000000	-0,011122
556,000000	-0,011219
555,000000	-0,011101
554,000000	-0,010826
553,000000	-0,011435
552,000000	-0,011135
551,000000	-0,011266
550,000000	-0,011122
549,000000	-0,011257
548,000000	-0,011380
547,000000	-0,011422
546,000000	-0,011706
545,000000	-0,011917
544,000000	-0,011718
543,000000	-0,011841
542,000000	-0,011803
541,000000	-0,011710
540,000000	-0,011718
539,000000	-0,011685
538,000000	-0,011718
537,000000	-0,011849
536,000000	-0,011849
535,000000	-0,011968
534,000000	-0,011904
533,000000	-0,011811
532,000000	-0,012090
531,000000	-0,011968
530,000000	-0,012014
529,000000	-0,011904
528,000000	-0,011871
527,000000	-0,011972
526,000000	-0,012154
525,000000	-0,011807
524,000000	-0,011976
523,000000	-0,011993
522,000000	-0,011947
521,000000	-0,012065
520,000000	-0,012073
519,000000	-0,012390
518,000000	-0,012234
517,000000	-0,012449
516,000000	-0,012234
515,000000	-0,012407
514,000000	-0,012373
513,000000	-0,012445
512,000000	-0,012542
511,000000	-0,012892
510,000000	-0,012766
509,000000	-0,012922
508,000000	-0,012964
507,000000	-0,012968
506,000000	-0,012959
505,000000	-0,013389
504,000000	-0,013393
503,000000	-0,013478
502,000000	-0,013368
501,000000	-0,013494
500,000000	-0,013718
499,000000	-0,013785
498,000000	-0,013932
497,000000	-0,013903
496,000000	-0,014084
495,000000	-0,014113
494,000000	-0,013987
493,000000	-0,014189
492,000000	-0,014109
491,000000	-0,014386
490,000000	-0,014949
489,000000	-0,014647
488,000000	-0,014764
487,000000	-0,014735
486,000000	-0,014835
485,000000	-0,014605
484,000000	-0,014894
483,000000	-0,014739
482,000000	-0,014810
481,000000	-0,015364
480,000000	-0,015179
479,000000	-0,015364
478,000000	-0,015020
477,000000	-0,015108
476,000000	-0,014831
475,000000	-0,014898
474,000000	-0,014907
473,000000	-0,014953
472,000000	-0,015108
471,000000	-0,015020
470,000000	-0,014592
469,000000	-0,014474
468,000000	-0,014084
467,000000	-0,013987
466,000000	-0,013764
465,000000	-0,013764
464,000000	-0,013250
463,000000	-0,013276
462,000000	-0,013200
461,000000	-0,012593
460,000000	-0,012584
459,000000	-0,012550
458,000000	-0,012247
457,000000	-0,011900
456,000000	-0,012078
455,000000	-0,011896
454,000000	-0,011680
453,000000	-0,011706
452,000000	-0,011558
451,000000	-0,011756
450,000000	-0,011401
449,000000	-0,011393
448,000000	-0,010936
447,000000	-0,010919
446,000000	-0,010597
445,000000	-0,010190
444,000000	-0,010487
443,000000	-0,010317
442,000000	-0,009880
441,000000	-0,009493
440,000000	-0,009260
439,000000	-0,009013
438,000000	-0,008545
437,000000	-0,008519
436,000000	-0,008566
435,000000	-0,008046
434,000000	-0,007970
433,000000	-0,007991
432,000000	-0,007662
431,000000	-0,007650
430,000000	-0,007786
429,000000	-0,007317
428,000000	-0,007402
427,000000	-0,007581
426,000000	-0,007590
425,000000	-0,007812
424,000000	-0,007137
423,000000	-0,007342
422,000000	-0,007189
421,000000	-0,007082
420,000000	-0,007244
419,000000	-0,007197
418,000000	-0,007317
417,000000	-0,007411
416,000000	-0,007641
415,000000	-0,007590
414,000000	-0,007790
413,000000	-0,007709
412,000000	-0,007722
411,000000	-0,007923
410,000000	-0,007987
409,000000	-0,008200
408,000000	-0,007948
407,000000	-0,008149
406,000000	-0,008225
405,000000	-0,008140
404,000000	-0,008374
403,000000	-0,008651
402,000000	-0,008349
401,000000	-0,008600
400,000000	-0,008656
399,000000	-0,008626
398,000000	-0,008958
397,000000	-0,009039
396,000000	-0,008856
395,000000	-0,009277
394,000000	-0,009136
393,000000	-0,009383
392,000000	-0,009366
391,000000	-0,009374
390,000000	-0,009566
