PE UV       SUBTECH     SPECTRUM    ASCII       PEDS        4.00        
   -1
23.Sample.Raw.asc
20/10/06
14:11:15.00
20/10/06
14:11:15.00
Analyst

390,000000
1
Lambda 25
501s11081509
PerkinElmer UV WinLab 6.0.3.0730 / Lambda25 1.27

480
2
1
0
0
Both on
1
1
1
None
0
0
0
0
 
 
0
0
0
0
0
 
 
 
0
 
0
326
0
 
0
 
 
 
0
0
0
 
0
 
 
 
0
 
 
0
0
0
0
0
 
 
 
 
0
0


#HDR
-1
-1
#GR
nm
A
1.0
0.0
700,000000
-1,000000
311
8
0,441493
0,002703
#DATA
700,000000	0,003011
699,000000	0,002703
698,000000	0,003153
697,000000	0,003018
696,000000	0,002842
695,000000	0,003172
694,000000	0,002824
693,000000	0,003322
692,000000	0,002734
691,000000	0,003127
690,000000	0,003185
689,000000	0,003223
688,000000	0,003452
687,000000	0,003218
686,000000	0,003491
685,000000	0,003125
684,000000	0,003535
683,000000	0,003704
682,000000	0,003606
681,000000	0,003864
680,000000	0,003844
679,000000	0,003642
678,000000	0,003867
677,000000	0,003627
676,000000	0,003772
675,000000	0,003227
674,000000	0,004037
673,000000	0,004265
672,000000	0,004324
671,000000	0,003677
670,000000	0,004287
669,000000	0,004227
668,000000	0,003979
667,000000	0,004285
666,000000	0,004338
665,000000	0,004132
664,000000	0,004292
663,000000	0,004479
662,000000	0,004380
661,000000	0,004147
660,000000	0,004741
659,000000	0,004297
658,000000	0,004557
657,000000	0,004516
656,000000	0,004932
655,000000	0,004758
654,000000	0,004762
653,000000	0,005052
652,000000	0,004594
651,000000	0,005080
650,000000	0,004976
649,000000	0,004727
648,000000	0,005203
647,000000	0,004921
646,000000	0,005459
645,000000	0,004913
644,000000	0,005477
643,000000	0,005302
642,000000	0,005708
641,000000	0,005490
640,000000	0,005465
639,000000	0,005754
638,000000	0,005340
637,000000	0,005821
636,000000	0,005699
635,000000	0,005746
634,000000	0,005591
633,000000	0,005826
632,000000	0,006172
631,000000	0,005776
630,000000	0,006347
629,000000	0,006092
628,000000	0,006559
627,000000	0,006097
626,000000	0,006327
625,000000	0,006334
624,000000	0,006515
623,000000	0,006419
622,000000	0,006357
621,000000	0,007033
620,000000	0,006851
619,000000	0,006940
618,000000	0,006977
617,000000	0,006734
616,000000	0,007180
615,000000	0,006769
614,000000	0,007197
613,000000	0,007196
612,000000	0,007328
611,000000	0,007418
610,000000	0,007234
609,000000	0,007758
608,000000	0,007695
607,000000	0,007854
606,000000	0,007690
605,000000	0,008027
604,000000	0,007714
603,000000	0,008153
602,000000	0,008261
601,000000	0,007963
600,000000	0,008465
599,000000	0,008143
598,000000	0,008534
597,000000	0,008489
596,000000	0,008603
595,000000	0,008840
594,000000	0,008537
593,000000	0,009035
592,000000	0,008988
591,000000	0,009209
590,000000	0,008970
589,000000	0,008915
588,000000	0,009247
587,000000	0,009503
586,000000	0,009687
585,000000	0,009665
584,000000	0,009614
583,000000	0,009862
582,000000	0,010046
581,000000	0,010069
580,000000	0,010007
579,000000	0,010647
578,000000	0,010045
577,000000	0,010463
576,000000	0,010648
575,000000	0,010766
574,000000	0,011078
573,000000	0,010887
572,000000	0,011187
571,000000	0,011158
570,000000	0,011876
569,000000	0,011779
568,000000	0,011947
567,000000	0,012110
566,000000	0,011964
565,000000	0,012177
564,000000	0,012330
563,000000	0,012542
562,000000	0,012356
561,000000	0,012927
560,000000	0,013087
559,000000	0,013260
558,000000	0,013388
557,000000	0,013543
556,000000	0,013872
555,000000	0,014077
554,000000	0,013745
553,000000	0,014915
552,000000	0,014439
551,000000	0,014864
550,000000	0,014904
549,000000	0,014991
548,000000	0,015127
547,000000	0,015493
546,000000	0,015755
545,000000	0,016115
544,000000	0,016158
543,000000	0,016438
542,000000	0,016576
541,000000	0,016799
540,000000	0,016733
539,000000	0,017403
538,000000	0,016992
537,000000	0,017942
536,000000	0,017594
535,000000	0,018007
534,000000	0,018323
533,000000	0,018402
532,000000	0,018848
531,000000	0,018893
530,000000	0,019191
529,000000	0,019391
528,000000	0,019702
527,000000	0,020029
526,000000	0,020250
525,000000	0,020430
524,000000	0,020564
523,000000	0,021308
522,000000	0,021022
521,000000	0,021904
520,000000	0,022134
519,000000	0,022553
518,000000	0,022473
517,000000	0,023048
516,000000	0,023007
515,000000	0,023260
514,000000	0,023747
513,000000	0,023939
512,000000	0,024130
511,000000	0,024989
510,000000	0,024724
509,000000	0,025278
508,000000	0,025601
507,000000	0,025838
506,000000	0,026004
505,000000	0,026465
504,000000	0,026859
503,000000	0,027315
502,000000	0,027376
501,000000	0,027628
500,000000	0,028183
499,000000	0,028727
498,000000	0,028973
497,000000	0,029308
496,000000	0,029723
495,000000	0,030036
494,000000	0,030185
493,000000	0,030671
492,000000	0,030907
491,000000	0,031721
490,000000	0,032388
489,000000	0,032312
488,000000	0,032792
487,000000	0,033020
486,000000	0,033874
485,000000	0,033870
484,000000	0,034432
483,000000	0,034981
482,000000	0,035521
481,000000	0,036417
480,000000	0,036342
479,000000	0,037225
478,000000	0,037013
477,000000	0,037764
476,000000	0,037844
475,000000	0,038677
474,000000	0,039066
473,000000	0,039461
472,000000	0,040518
471,000000	0,040826
470,000000	0,041187
469,000000	0,041767
468,000000	0,042251
467,000000	0,042743
466,000000	0,043310
465,000000	0,044488
464,000000	0,044371
463,000000	0,045690
462,000000	0,045937
461,000000	0,046216
460,000000	0,047265
459,000000	0,047999
458,000000	0,048751
457,000000	0,049228
456,000000	0,050182
455,000000	0,051221
454,000000	0,051662
453,000000	0,052569
452,000000	0,052927
451,000000	0,054116
450,000000	0,054614
449,000000	0,056023
448,000000	0,056240
447,000000	0,057019
446,000000	0,057974
445,000000	0,058872
444,000000	0,060224
443,000000	0,061147
442,000000	0,062211
441,000000	0,063120
440,000000	0,064318
439,000000	0,065682
438,000000	0,066537
437,000000	0,068033
436,000000	0,069012
435,000000	0,070318
434,000000	0,071416
433,000000	0,072811
432,000000	0,074018
431,000000	0,075288
430,000000	0,076832
429,000000	0,078266
428,000000	0,079791
427,000000	0,081121
426,000000	0,082856
425,000000	0,084081
424,000000	0,085076
423,000000	0,086739
422,000000	0,087948
421,000000	0,089099
420,000000	0,090495
419,000000	0,092051
418,000000	0,093752
417,000000	0,095598
416,000000	0,097348
415,000000	0,098992
414,000000	0,101132
413,000000	0,102842
412,000000	0,104708
411,000000	0,107108
410,000000	0,109322
409,000000	0,112164
408,000000	0,114364
407,000000	0,117219
406,000000	0,120451
405,000000	0,123985
404,000000	0,127961
403,000000	0,132405
402,000000	0,137477
401,000000	0,144303
400,000000	0,151745
399,000000	0,160732
398,000000	0,171477
397,000000	0,183957
396,000000	0,199289
395,000000	0,220267
394,000000	0,245866
393,000000	0,278972
392,000000	0,322828
391,000000	0,375805
390,000000	0,441493
