PE UV       SUBTECH     SPECTRUM    ASCII       PEDS        4.00        
   -1
24.Sample.Raw.asc
20/10/06
14:56:29.00
20/10/06
14:56:29.00
Analyst

390,000000
1
Lambda 25
501s11081509
PerkinElmer UV WinLab 6.0.3.0730 / Lambda25 1.27

480
2
1
0
0
Both on
1
1
1
None
0
0
0
0
 
 
0
0
0
0
0
 
 
 
0
 
0
326
0
 
0
 
 
 
0
0
0
 
0
 
 
 
0
 
 
0
0
0
0
0
 
 
 
 
0
0


#HDR
-1
-1
#GR
nm
A
1.0
0.0
700,000000
-1,000000
311
8
0,031843
0,007182
#DATA
700,000000	0,007320
699,000000	0,007405
698,000000	0,007450
697,000000	0,007425
696,000000	0,007182
695,000000	0,007435
694,000000	0,007250
693,000000	0,007488
692,000000	0,007284
691,000000	0,007345
690,000000	0,007426
689,000000	0,007660
688,000000	0,007738
687,000000	0,007669
686,000000	0,007610
685,000000	0,007482
684,000000	0,007727
683,000000	0,007390
682,000000	0,007392
681,000000	0,007770
680,000000	0,007668
679,000000	0,007692
678,000000	0,007596
677,000000	0,007464
676,000000	0,007813
675,000000	0,007482
674,000000	0,007716
673,000000	0,008193
672,000000	0,008161
671,000000	0,007719
670,000000	0,008287
669,000000	0,008045
668,000000	0,008154
667,000000	0,007896
666,000000	0,008269
665,000000	0,008072
664,000000	0,007923
663,000000	0,008152
662,000000	0,008239
661,000000	0,008461
660,000000	0,008179
659,000000	0,008184
658,000000	0,008292
657,000000	0,008296
656,000000	0,008550
655,000000	0,008503
654,000000	0,008680
653,000000	0,008562
652,000000	0,008501
651,000000	0,008745
650,000000	0,008467
649,000000	0,008507
648,000000	0,008870
647,000000	0,008774
646,000000	0,009044
645,000000	0,008945
644,000000	0,009185
643,000000	0,009167
642,000000	0,009096
641,000000	0,008900
640,000000	0,008914
639,000000	0,009069
638,000000	0,009169
637,000000	0,009066
636,000000	0,008969
635,000000	0,009241
634,000000	0,009022
633,000000	0,009199
632,000000	0,009364
631,000000	0,009412
630,000000	0,009697
629,000000	0,009501
628,000000	0,009813
627,000000	0,009587
626,000000	0,009649
625,000000	0,009727
624,000000	0,009546
623,000000	0,009428
622,000000	0,009762
621,000000	0,009706
620,000000	0,010121
619,000000	0,010190
618,000000	0,010134
617,000000	0,009937
616,000000	0,010283
615,000000	0,009885
614,000000	0,010288
613,000000	0,010254
612,000000	0,010246
611,000000	0,010413
610,000000	0,010119
609,000000	0,010356
608,000000	0,010441
607,000000	0,010571
606,000000	0,010491
605,000000	0,010565
604,000000	0,010303
603,000000	0,010654
602,000000	0,010643
601,000000	0,010931
600,000000	0,010737
599,000000	0,010763
598,000000	0,010956
597,000000	0,010766
596,000000	0,011115
595,000000	0,011203
594,000000	0,010878
593,000000	0,011420
592,000000	0,011391
591,000000	0,011252
590,000000	0,011175
589,000000	0,011144
588,000000	0,011210
587,000000	0,011395
586,000000	0,011359
585,000000	0,011544
584,000000	0,011311
583,000000	0,011849
582,000000	0,011936
581,000000	0,011489
580,000000	0,011859
579,000000	0,011777
578,000000	0,012109
577,000000	0,011802
576,000000	0,011824
575,000000	0,011936
574,000000	0,012045
573,000000	0,012007
572,000000	0,012034
571,000000	0,011888
570,000000	0,011950
569,000000	0,012523
568,000000	0,012365
567,000000	0,012511
566,000000	0,012734
565,000000	0,012421
564,000000	0,012356
563,000000	0,012738
562,000000	0,012574
561,000000	0,012374
560,000000	0,012289
559,000000	0,013243
558,000000	0,012839
557,000000	0,013002
556,000000	0,013012
555,000000	0,012828
554,000000	0,012736
553,000000	0,013259
552,000000	0,013242
551,000000	0,013390
550,000000	0,013474
549,000000	0,013295
548,000000	0,013596
547,000000	0,013892
546,000000	0,013739
545,000000	0,013985
544,000000	0,013882
543,000000	0,014101
542,000000	0,013967
541,000000	0,013939
540,000000	0,014044
539,000000	0,014006
538,000000	0,014057
537,000000	0,014393
536,000000	0,014341
535,000000	0,014407
534,000000	0,014295
533,000000	0,014429
532,000000	0,014542
531,000000	0,014686
530,000000	0,014558
529,000000	0,014715
528,000000	0,014589
527,000000	0,014887
526,000000	0,015204
525,000000	0,014770
524,000000	0,015171
523,000000	0,015039
522,000000	0,015334
521,000000	0,015334
520,000000	0,015330
519,000000	0,015590
518,000000	0,015333
517,000000	0,015705
516,000000	0,015324
515,000000	0,015725
514,000000	0,015713
513,000000	0,015566
512,000000	0,015995
511,000000	0,015956
510,000000	0,015978
509,000000	0,016217
508,000000	0,016299
507,000000	0,016474
506,000000	0,016487
505,000000	0,016882
504,000000	0,016812
503,000000	0,016927
502,000000	0,016751
501,000000	0,016825
500,000000	0,017040
499,000000	0,017164
498,000000	0,017390
497,000000	0,017023
496,000000	0,017406
495,000000	0,017321
494,000000	0,017519
493,000000	0,017480
492,000000	0,017396
491,000000	0,017866
490,000000	0,018332
489,000000	0,018157
488,000000	0,018195
487,000000	0,018354
486,000000	0,018591
485,000000	0,018233
484,000000	0,018597
483,000000	0,018538
482,000000	0,018592
481,000000	0,018979
480,000000	0,019066
479,000000	0,019290
478,000000	0,018850
477,000000	0,019227
476,000000	0,019034
475,000000	0,019175
474,000000	0,019342
473,000000	0,019550
472,000000	0,019903
471,000000	0,020043
470,000000	0,019971
469,000000	0,020087
468,000000	0,019731
467,000000	0,020308
466,000000	0,020275
465,000000	0,020504
464,000000	0,020388
463,000000	0,020859
462,000000	0,020721
461,000000	0,020773
460,000000	0,020990
459,000000	0,021271
458,000000	0,020998
457,000000	0,020918
456,000000	0,021641
455,000000	0,021344
454,000000	0,021844
453,000000	0,021927
452,000000	0,022023
451,000000	0,022187
450,000000	0,022147
449,000000	0,022023
448,000000	0,022203
447,000000	0,022467
446,000000	0,022654
445,000000	0,022113
444,000000	0,022771
443,000000	0,022968
442,000000	0,023072
441,000000	0,023143
440,000000	0,023321
439,000000	0,023533
438,000000	0,023514
437,000000	0,023992
436,000000	0,023908
435,000000	0,023974
434,000000	0,023847
433,000000	0,024225
432,000000	0,024185
431,000000	0,023951
430,000000	0,024683
429,000000	0,024205
428,000000	0,024656
427,000000	0,024975
426,000000	0,025377
425,000000	0,025731
424,000000	0,025002
423,000000	0,025655
422,000000	0,025533
421,000000	0,026056
420,000000	0,026441
419,000000	0,026489
418,000000	0,026591
417,000000	0,026667
416,000000	0,027133
415,000000	0,027391
414,000000	0,027723
413,000000	0,027497
412,000000	0,027660
411,000000	0,027760
410,000000	0,028015
409,000000	0,028115
408,000000	0,028181
407,000000	0,028541
406,000000	0,028518
405,000000	0,028783
404,000000	0,028995
403,000000	0,029390
402,000000	0,029288
401,000000	0,029589
400,000000	0,029813
399,000000	0,029920
398,000000	0,030344
397,000000	0,030703
396,000000	0,030552
395,000000	0,030936
394,000000	0,031024
393,000000	0,031262
392,000000	0,031478
391,000000	0,031843
390,000000	0,031792
