PE UV       SUBTECH     SPECTRUM    ASCII       PEDS        4.00        
   -1
29.Sample.Raw.asc
20/10/06
14:12:17.00
20/10/06
14:12:17.00
Analyst

390,000000
1
Lambda 25
501s11081509
PerkinElmer UV WinLab 6.0.3.0730 / Lambda25 1.27

480
2
1
0
0
Both on
1
1
1
None
0
0
0
0
 
 
0
0
0
0
0
 
 
 
0
 
0
326
0
 
0
 
 
 
0
0
0
 
0
 
 
 
0
 
 
0
0
0
0
0
 
 
 
 
0
0


#HDR
-1
-1
#GR
nm
A
1.0
0.0
700,000000
-1,000000
311
8
0,010409
0,000444
#DATA
700,000000	0,000882
699,000000	0,000534
698,000000	0,000837
697,000000	0,000534
696,000000	0,000608
695,000000	0,000826
694,000000	0,000522
693,000000	0,000917
692,000000	0,000444
691,000000	0,000827
690,000000	0,000802
689,000000	0,000844
688,000000	0,001054
687,000000	0,000655
686,000000	0,001018
685,000000	0,000457
684,000000	0,001010
683,000000	0,000759
682,000000	0,000945
681,000000	0,001185
680,000000	0,000979
679,000000	0,000991
678,000000	0,000987
677,000000	0,000566
676,000000	0,001161
675,000000	0,000533
674,000000	0,001158
673,000000	0,001128
672,000000	0,001406
671,000000	0,001039
670,000000	0,001634
669,000000	0,001320
668,000000	0,001039
667,000000	0,001147
666,000000	0,001209
665,000000	0,001255
664,000000	0,001044
663,000000	0,001214
662,000000	0,001376
661,000000	0,001206
660,000000	0,001314
659,000000	0,000979
658,000000	0,001420
657,000000	0,001016
656,000000	0,001303
655,000000	0,001440
654,000000	0,001444
653,000000	0,001482
652,000000	0,001005
651,000000	0,001266
650,000000	0,001358
649,000000	0,001109
648,000000	0,001508
647,000000	0,001213
646,000000	0,001691
645,000000	0,001289
644,000000	0,001617
643,000000	0,001492
642,000000	0,001629
641,000000	0,001085
640,000000	0,001156
639,000000	0,001422
638,000000	0,001481
637,000000	0,001377
636,000000	0,001323
635,000000	0,001436
634,000000	0,001236
633,000000	0,001302
632,000000	0,001772
631,000000	0,001211
630,000000	0,001748
629,000000	0,001477
628,000000	0,001835
627,000000	0,001511
626,000000	0,001590
625,000000	0,001556
624,000000	0,001394
623,000000	0,001699
622,000000	0,001349
621,000000	0,001611
620,000000	0,001878
619,000000	0,001786
618,000000	0,001836
617,000000	0,001670
616,000000	0,001857
615,000000	0,001383
614,000000	0,001787
613,000000	0,001666
612,000000	0,001779
611,000000	0,001670
610,000000	0,001671
609,000000	0,001879
608,000000	0,001778
607,000000	0,001966
606,000000	0,001787
605,000000	0,001907
604,000000	0,001670
603,000000	0,001886
602,000000	0,002094
601,000000	0,001811
600,000000	0,002082
599,000000	0,001690
598,000000	0,001903
597,000000	0,001774
596,000000	0,001986
595,000000	0,002169
594,000000	0,001745
593,000000	0,002411
592,000000	0,001953
591,000000	0,002234
590,000000	0,001864
589,000000	0,001907
588,000000	0,001733
587,000000	0,001860
586,000000	0,002171
585,000000	0,001922
584,000000	0,001874
583,000000	0,002093
582,000000	0,002205
581,000000	0,002048
580,000000	0,001979
579,000000	0,002204
578,000000	0,001983
577,000000	0,002365
576,000000	0,002210
575,000000	0,002310
574,000000	0,002239
573,000000	0,002250
572,000000	0,002332
571,000000	0,001997
570,000000	0,002371
569,000000	0,002307
568,000000	0,002380
567,000000	0,002593
566,000000	0,002351
565,000000	0,002161
564,000000	0,002144
563,000000	0,002616
562,000000	0,002217
561,000000	0,002383
560,000000	0,002205
559,000000	0,002240
558,000000	0,002521
557,000000	0,002258
556,000000	0,002585
555,000000	0,002373
554,000000	0,002136
553,000000	0,002924
552,000000	0,002534
551,000000	0,002730
550,000000	0,002709
549,000000	0,002806
548,000000	0,002788
547,000000	0,002516
546,000000	0,002931
545,000000	0,002785
544,000000	0,002714
543,000000	0,002973
542,000000	0,002743
541,000000	0,002646
540,000000	0,002523
539,000000	0,002829
538,000000	0,002756
537,000000	0,002968
536,000000	0,002994
535,000000	0,003133
534,000000	0,002666
533,000000	0,002824
532,000000	0,003090
531,000000	0,002861
530,000000	0,002980
529,000000	0,002819
528,000000	0,002828
527,000000	0,003257
526,000000	0,003256
525,000000	0,003067
524,000000	0,003087
523,000000	0,003206
522,000000	0,002908
521,000000	0,003154
520,000000	0,003090
519,000000	0,003424
518,000000	0,003446
517,000000	0,003300
516,000000	0,003408
515,000000	0,003275
514,000000	0,003160
513,000000	0,003202
512,000000	0,003231
511,000000	0,003637
510,000000	0,003391
509,000000	0,003466
508,000000	0,003636
507,000000	0,003496
506,000000	0,003296
505,000000	0,003815
504,000000	0,003662
503,000000	0,003555
502,000000	0,003391
501,000000	0,003636
500,000000	0,003736
499,000000	0,003820
498,000000	0,003870
497,000000	0,003637
496,000000	0,003771
495,000000	0,003703
494,000000	0,003721
493,000000	0,003736
492,000000	0,003580
491,000000	0,003794
490,000000	0,004462
489,000000	0,003741
488,000000	0,004006
487,000000	0,003761
486,000000	0,004129
485,000000	0,004004
484,000000	0,003971
483,000000	0,003994
482,000000	0,003913
481,000000	0,004649
480,000000	0,004146
479,000000	0,004509
478,000000	0,004101
477,000000	0,004185
476,000000	0,003781
475,000000	0,004166
474,000000	0,004145
473,000000	0,004238
472,000000	0,004634
471,000000	0,004877
470,000000	0,004500
469,000000	0,004361
468,000000	0,004318
467,000000	0,004867
466,000000	0,004670
465,000000	0,004993
464,000000	0,004527
463,000000	0,004956
462,000000	0,004817
461,000000	0,004559
460,000000	0,004730
459,000000	0,004850
458,000000	0,004951
457,000000	0,004537
456,000000	0,005274
455,000000	0,005353
454,000000	0,004949
453,000000	0,005081
452,000000	0,004921
451,000000	0,005359
450,000000	0,004901
449,000000	0,005616
448,000000	0,004988
447,000000	0,005404
446,000000	0,005627
445,000000	0,005069
444,000000	0,005899
443,000000	0,005690
442,000000	0,006187
441,000000	0,005671
440,000000	0,005868
439,000000	0,005751
438,000000	0,005645
437,000000	0,006142
436,000000	0,006322
435,000000	0,006023
434,000000	0,005933
433,000000	0,006253
432,000000	0,006102
431,000000	0,006587
430,000000	0,006706
429,000000	0,006297
428,000000	0,006015
427,000000	0,006679
426,000000	0,007078
425,000000	0,007026
424,000000	0,006248
423,000000	0,006821
422,000000	0,006767
421,000000	0,006804
420,000000	0,006858
419,000000	0,006759
418,000000	0,007169
417,000000	0,007198
416,000000	0,007428
415,000000	0,007364
414,000000	0,007604
413,000000	0,007401
412,000000	0,007653
411,000000	0,007671
410,000000	0,007652
409,000000	0,008078
408,000000	0,007631
407,000000	0,008062
406,000000	0,008095
405,000000	0,007867
404,000000	0,008244
403,000000	0,008521
402,000000	0,008305
401,000000	0,008596
400,000000	0,008799
399,000000	0,008982
398,000000	0,009058
397,000000	0,009160
396,000000	0,008929
395,000000	0,009607
394,000000	0,009310
393,000000	0,009578
392,000000	0,009805
391,000000	0,010074
390,000000	0,010409
