PE UV       SUBTECH     SPECTRUM    ASCII       PEDS        4.00        
   -1
3.Sample.Raw.asc
20/10/06
14:41:45.00
20/10/06
14:41:45.00
Analyst

390,000000
1
Lambda 25
501s11081509
PerkinElmer UV WinLab 6.0.3.0730 / Lambda25 1.27

480
2
1
0
0
Both on
1
1
1
None
0
0
0
0
 
 
0
0
0
0
0
 
 
 
0
 
0
326
0
 
0
 
 
 
0
0
0
 
0
 
 
 
0
 
 
0
0
0
0
0
 
 
 
 
0
0


#HDR
-1
-1
#GR
nm
A
1.0
0.0
700,000000
-1,000000
311
8
0,335090
0,006033
#DATA
700,000000	0,006117
699,000000	0,006072
698,000000	0,006321
697,000000	0,006033
696,000000	0,006182
695,000000	0,006672
694,000000	0,006140
693,000000	0,006558
692,000000	0,006161
691,000000	0,006584
690,000000	0,006457
689,000000	0,006891
688,000000	0,006901
687,000000	0,006735
686,000000	0,006990
685,000000	0,006586
684,000000	0,007216
683,000000	0,007248
682,000000	0,007078
681,000000	0,007535
680,000000	0,007274
679,000000	0,007436
678,000000	0,007466
677,000000	0,007296
676,000000	0,007800
675,000000	0,007461
674,000000	0,007981
673,000000	0,008252
672,000000	0,008325
671,000000	0,007878
670,000000	0,008675
669,000000	0,008462
668,000000	0,008496
667,000000	0,008528
666,000000	0,008636
665,000000	0,008683
664,000000	0,008652
663,000000	0,008966
662,000000	0,009079
661,000000	0,009217
660,000000	0,008981
659,000000	0,009194
658,000000	0,009349
657,000000	0,009371
656,000000	0,009616
655,000000	0,009824
654,000000	0,009912
653,000000	0,010252
652,000000	0,009958
651,000000	0,010372
650,000000	0,010107
649,000000	0,010279
648,000000	0,010511
647,000000	0,010633
646,000000	0,011082
645,000000	0,010728
644,000000	0,011270
643,000000	0,011219
642,000000	0,011620
641,000000	0,011467
640,000000	0,011384
639,000000	0,012034
638,000000	0,011645
637,000000	0,012062
636,000000	0,011811
635,000000	0,012175
634,000000	0,011951
633,000000	0,012286
632,000000	0,012882
631,000000	0,012429
630,000000	0,013147
629,000000	0,012997
628,000000	0,013527
627,000000	0,013470
626,000000	0,013562
625,000000	0,014064
624,000000	0,013755
623,000000	0,013975
622,000000	0,013785
621,000000	0,014517
620,000000	0,014670
619,000000	0,015130
618,000000	0,015224
617,000000	0,015039
616,000000	0,015789
615,000000	0,015468
614,000000	0,015771
613,000000	0,015899
612,000000	0,016138
611,000000	0,016546
610,000000	0,016353
609,000000	0,016853
608,000000	0,017125
607,000000	0,017312
606,000000	0,017388
605,000000	0,017630
604,000000	0,017701
603,000000	0,018045
602,000000	0,018400
601,000000	0,018314
600,000000	0,018687
599,000000	0,018783
598,000000	0,019288
597,000000	0,019383
596,000000	0,019713
595,000000	0,020071
594,000000	0,019916
593,000000	0,020668
592,000000	0,020790
591,000000	0,020963
590,000000	0,021233
589,000000	0,020838
588,000000	0,021594
587,000000	0,021850
586,000000	0,022218
585,000000	0,022245
584,000000	0,022625
583,000000	0,023057
582,000000	0,023263
581,000000	0,023621
580,000000	0,023718
579,000000	0,024318
578,000000	0,024734
577,000000	0,024848
576,000000	0,025407
575,000000	0,025504
574,000000	0,026057
573,000000	0,026102
572,000000	0,026343
571,000000	0,026465
570,000000	0,027186
569,000000	0,027469
568,000000	0,028003
567,000000	0,028842
566,000000	0,028318
565,000000	0,028926
564,000000	0,029136
563,000000	0,029692
562,000000	0,029842
561,000000	0,030516
560,000000	0,030805
559,000000	0,031768
558,000000	0,032434
557,000000	0,032508
556,000000	0,032957
555,000000	0,033231
554,000000	0,033376
553,000000	0,034407
552,000000	0,034464
551,000000	0,035453
550,000000	0,035653
549,000000	0,036161
548,000000	0,036753
547,000000	0,037007
546,000000	0,037950
545,000000	0,038221
544,000000	0,038826
543,000000	0,039037
542,000000	0,039508
541,000000	0,040128
540,000000	0,040503
539,000000	0,041398
538,000000	0,041688
537,000000	0,042480
536,000000	0,042862
535,000000	0,043508
534,000000	0,043968
533,000000	0,044343
532,000000	0,045353
531,000000	0,045779
530,000000	0,046460
529,000000	0,046919
528,000000	0,047488
527,000000	0,048316
526,000000	0,048956
525,000000	0,049324
524,000000	0,049920
523,000000	0,050942
522,000000	0,051376
521,000000	0,052442
520,000000	0,052970
519,000000	0,053807
518,000000	0,054473
517,000000	0,055196
516,000000	0,055763
515,000000	0,056320
514,000000	0,057176
513,000000	0,058193
512,000000	0,058811
511,000000	0,059993
510,000000	0,060559
509,000000	0,061467
508,000000	0,062015
507,000000	0,063202
506,000000	0,064014
505,000000	0,065113
504,000000	0,065631
503,000000	0,066593
502,000000	0,067545
501,000000	0,068095
500,000000	0,069418
499,000000	0,070137
498,000000	0,071185
497,000000	0,072222
496,000000	0,072895
495,000000	0,074254
494,000000	0,074962
493,000000	0,075924
492,000000	0,077103
491,000000	0,078068
490,000000	0,079825
489,000000	0,080461
488,000000	0,081773
487,000000	0,082901
486,000000	0,084131
485,000000	0,084614
484,000000	0,086273
483,000000	0,087240
482,000000	0,088787
481,000000	0,090454
480,000000	0,091257
479,000000	0,092602
478,000000	0,093396
477,000000	0,094907
476,000000	0,095790
475,000000	0,097424
474,000000	0,098732
473,000000	0,100293
472,000000	0,102010
471,000000	0,103154
470,000000	0,104475
469,000000	0,105705
468,000000	0,107049
467,000000	0,108574
466,000000	0,110158
465,000000	0,112050
464,000000	0,113457
463,000000	0,115148
462,000000	0,116762
461,000000	0,117961
460,000000	0,119466
459,000000	0,121777
458,000000	0,123506
457,000000	0,124987
456,000000	0,127486
455,000000	0,129223
454,000000	0,130764
453,000000	0,132472
452,000000	0,133991
451,000000	0,135960
450,000000	0,137674
449,000000	0,140135
448,000000	0,141774
447,000000	0,144000
446,000000	0,145718
445,000000	0,147528
444,000000	0,150490
443,000000	0,152135
442,000000	0,154488
441,000000	0,156410
440,000000	0,158522
439,000000	0,161113
438,000000	0,163223
437,000000	0,165785
436,000000	0,168316
435,000000	0,170767
434,000000	0,173193
433,000000	0,175897
432,000000	0,177883
431,000000	0,180642
430,000000	0,184312
429,000000	0,186898
428,000000	0,190042
427,000000	0,193061
426,000000	0,196457
425,000000	0,199068
424,000000	0,200815
423,000000	0,204131
422,000000	0,207531
421,000000	0,208452
420,000000	0,211816
419,000000	0,215079
418,000000	0,218618
417,000000	0,221704
416,000000	0,225075
415,000000	0,228535
414,000000	0,231969
413,000000	0,235116
412,000000	0,238729
411,000000	0,242388
410,000000	0,246126
409,000000	0,250068
408,000000	0,253539
407,000000	0,257748
406,000000	0,261365
405,000000	0,265769
404,000000	0,269618
403,000000	0,273875
402,000000	0,278084
401,000000	0,282615
400,000000	0,286894
399,000000	0,291863
398,000000	0,296586
397,000000	0,300779
396,000000	0,305452
395,000000	0,310576
394,000000	0,314944
393,000000	0,320181
392,000000	0,325410
391,000000	0,329801
390,000000	0,335090
