PE UV       SUBTECH     SPECTRUM    ASCII       PEDS        4.00        
   -1
33.Sample.Raw.asc
20/10/06
14:14:24.00
20/10/06
14:14:24.00
Analyst

390,000000
1
Lambda 25
501s11081509
PerkinElmer UV WinLab 6.0.3.0730 / Lambda25 1.27

480
2
1
0
0
Both on
1
1
1
None
0
0
0
0
 
 
0
0
0
0
0
 
 
 
0
 
0
326
0
 
0
 
 
 
0
0
0
 
0
 
 
 
0
 
 
0
0
0
0
0
 
 
 
 
0
0


#HDR
-1
-1
#GR
nm
A
1.0
0.0
700,000000
-1,000000
311
8
0,163947
0,000259
#DATA
700,000000	0,000488
699,000000	0,000443
698,000000	0,000722
697,000000	0,000300
696,000000	0,000489
695,000000	0,000690
694,000000	0,000341
693,000000	0,000715
692,000000	0,000259
691,000000	0,000399
690,000000	0,000420
689,000000	0,000572
688,000000	0,000658
687,000000	0,000539
686,000000	0,000750
685,000000	0,000264
684,000000	0,000762
683,000000	0,000664
682,000000	0,000536
681,000000	0,000644
680,000000	0,000636
679,000000	0,000661
678,000000	0,000549
677,000000	0,000574
676,000000	0,000537
675,000000	0,000269
674,000000	0,000463
673,000000	0,000702
672,000000	0,001038
671,000000	0,000488
670,000000	0,001009
669,000000	0,000711
668,000000	0,000815
667,000000	0,000836
666,000000	0,000969
665,000000	0,000600
664,000000	0,000480
663,000000	0,001069
662,000000	0,000675
661,000000	0,000783
660,000000	0,000692
659,000000	0,000444
658,000000	0,000680
657,000000	0,000485
656,000000	0,000784
655,000000	0,000593
654,000000	0,000863
653,000000	0,000788
652,000000	0,000722
651,000000	0,000917
650,000000	0,000772
649,000000	0,000768
648,000000	0,000843
647,000000	0,000656
646,000000	0,000963
645,000000	0,000810
644,000000	0,001013
643,000000	0,001035
642,000000	0,001234
641,000000	0,000831
640,000000	0,000919
639,000000	0,001002
638,000000	0,000998
637,000000	0,001069
636,000000	0,001181
635,000000	0,001190
634,000000	0,000923
633,000000	0,000994
632,000000	0,001535
631,000000	0,001036
630,000000	0,001323
629,000000	0,001190
628,000000	0,001672
627,000000	0,001365
626,000000	0,001590
625,000000	0,001264
624,000000	0,001299
623,000000	0,001415
622,000000	0,001199
621,000000	0,001786
620,000000	0,001436
619,000000	0,001703
618,000000	0,001557
617,000000	0,001636
616,000000	0,001748
615,000000	0,001504
614,000000	0,001683
613,000000	0,001728
612,000000	0,001628
611,000000	0,002037
610,000000	0,001729
609,000000	0,002204
608,000000	0,002242
607,000000	0,002409
606,000000	0,002146
605,000000	0,002801
604,000000	0,002334
603,000000	0,002797
602,000000	0,002855
601,000000	0,002776
600,000000	0,003001
599,000000	0,002922
598,000000	0,003085
597,000000	0,003266
596,000000	0,003742
595,000000	0,003825
594,000000	0,003794
593,000000	0,004307
592,000000	0,004208
591,000000	0,004588
590,000000	0,004437
589,000000	0,004908
588,000000	0,005033
587,000000	0,005227
586,000000	0,005581
585,000000	0,005672
584,000000	0,006024
583,000000	0,006442
582,000000	0,006926
581,000000	0,007167
580,000000	0,007397
579,000000	0,008040
578,000000	0,008132
577,000000	0,008585
576,000000	0,008825
575,000000	0,009479
574,000000	0,009854
573,000000	0,009978
572,000000	0,010537
571,000000	0,011037
570,000000	0,011593
569,000000	0,012045
568,000000	0,012426
567,000000	0,013007
566,000000	0,013345
565,000000	0,013101
564,000000	0,014068
563,000000	0,014783
562,000000	0,015005
561,000000	0,015646
560,000000	0,015984
559,000000	0,017362
558,000000	0,018036
557,000000	0,018348
556,000000	0,018944
555,000000	0,019578
554,000000	0,019879
553,000000	0,021438
552,000000	0,021547
551,000000	0,022462
550,000000	0,022585
549,000000	0,023609
548,000000	0,024161
547,000000	0,025143
546,000000	0,026167
545,000000	0,027021
544,000000	0,027813
543,000000	0,028630
542,000000	0,029595
541,000000	0,030136
540,000000	0,030797
539,000000	0,031936
538,000000	0,032461
537,000000	0,033820
536,000000	0,034707
535,000000	0,036132
534,000000	0,036698
533,000000	0,037830
532,000000	0,039184
531,000000	0,039978
530,000000	0,041235
529,000000	0,042223
528,000000	0,043696
527,000000	0,044752
526,000000	0,046378
525,000000	0,047170
524,000000	0,048245
523,000000	0,049766
522,000000	0,050981
521,000000	0,052042
520,000000	0,053304
519,000000	0,054778
518,000000	0,055643
517,000000	0,057344
516,000000	0,058440
515,000000	0,059426
514,000000	0,060604
513,000000	0,062031
512,000000	0,063196
511,000000	0,064650
510,000000	0,065616
509,000000	0,067030
508,000000	0,068195
507,000000	0,069711
506,000000	0,070654
505,000000	0,072335
504,000000	0,073495
503,000000	0,074483
502,000000	0,075825
501,000000	0,077142
500,000000	0,078780
499,000000	0,079948
498,000000	0,081403
497,000000	0,082435
496,000000	0,084113
495,000000	0,085241
494,000000	0,086714
493,000000	0,087898
492,000000	0,089437
491,000000	0,090935
490,000000	0,092286
489,000000	0,093803
488,000000	0,094870
487,000000	0,096112
486,000000	0,097598
485,000000	0,098577
484,000000	0,100112
483,000000	0,101132
482,000000	0,102365
481,000000	0,104052
480,000000	0,104614
479,000000	0,105787
478,000000	0,106422
477,000000	0,107896
476,000000	0,108652
475,000000	0,109826
474,000000	0,110543
473,000000	0,111489
472,000000	0,112714
471,000000	0,113545
470,000000	0,113979
469,000000	0,114534
468,000000	0,115737
467,000000	0,116393
466,000000	0,117381
465,000000	0,118258
464,000000	0,118181
463,000000	0,119436
462,000000	0,120021
461,000000	0,120337
460,000000	0,120746
459,000000	0,121705
458,000000	0,122122
457,000000	0,122442
456,000000	0,123034
455,000000	0,123812
454,000000	0,124215
453,000000	0,124229
452,000000	0,124746
451,000000	0,125046
450,000000	0,124640
449,000000	0,125365
448,000000	0,125512
447,000000	0,125971
446,000000	0,126192
445,000000	0,125882
444,000000	0,126365
443,000000	0,126542
442,000000	0,126792
441,000000	0,126730
440,000000	0,126502
439,000000	0,127001
438,000000	0,126841
437,000000	0,126963
436,000000	0,127855
435,000000	0,127221
434,000000	0,127099
433,000000	0,127726
432,000000	0,127489
431,000000	0,127917
430,000000	0,127733
429,000000	0,127991
428,000000	0,128214
427,000000	0,129266
426,000000	0,129108
425,000000	0,129278
424,000000	0,129254
423,000000	0,130138
422,000000	0,129725
421,000000	0,128778
420,000000	0,128969
419,000000	0,128911
418,000000	0,129324
417,000000	0,129682
416,000000	0,130322
415,000000	0,130276
414,000000	0,130655
413,000000	0,130534
412,000000	0,131048
411,000000	0,131584
410,000000	0,132341
409,000000	0,132988
408,000000	0,133153
407,000000	0,134317
406,000000	0,135306
405,000000	0,136054
404,000000	0,137088
403,000000	0,138804
402,000000	0,139828
401,000000	0,142012
400,000000	0,143629
399,000000	0,145636
398,000000	0,148057
397,000000	0,150104
396,000000	0,152103
395,000000	0,154552
394,000000	0,156284
393,000000	0,158553
392,000000	0,160463
391,000000	0,162468
390,000000	0,163947
