PE UV       SUBTECH     SPECTRUM    ASCII       PEDS        4.00        
   -1
34.Sample.Raw.asc
20/10/06
14:16:48.00
20/10/06
14:16:48.00
Analyst

390,000000
1
Lambda 25
501s11081509
PerkinElmer UV WinLab 6.0.3.0730 / Lambda25 1.27

480
2
1
0
0
Both on
1
1
1
None
0
0
0
0
 
 
0
0
0
0
0
 
 
 
0
 
0
326
0
 
0
 
 
 
0
0
0
 
0
 
 
 
0
 
 
0
0
0
0
0
 
 
 
 
0
0


#HDR
-1
-1
#GR
nm
A
1.0
0.0
700,000000
-1,000000
311
8
0,012883
0,000236
#DATA
700,000000	0,000665
699,000000	0,000472
698,000000	0,000628
697,000000	0,000468
696,000000	0,000435
695,000000	0,000822
694,000000	0,000312
693,000000	0,000686
692,000000	0,000280
691,000000	0,000407
690,000000	0,000432
689,000000	0,000724
688,000000	0,000535
687,000000	0,000564
686,000000	0,000445
685,000000	0,000449
684,000000	0,000622
683,000000	0,000627
682,000000	0,000507
681,000000	0,000644
680,000000	0,000561
679,000000	0,000731
678,000000	0,000648
677,000000	0,000496
676,000000	0,000570
675,000000	0,000236
674,000000	0,000632
673,000000	0,000897
672,000000	0,000947
671,000000	0,000414
670,000000	0,001170
669,000000	0,000715
668,000000	0,000865
667,000000	0,000596
666,000000	0,000795
665,000000	0,000683
664,000000	0,000451
663,000000	0,000762
662,000000	0,000679
661,000000	0,000825
660,000000	0,000709
659,000000	0,000365
658,000000	0,000593
657,000000	0,000809
656,000000	0,000912
655,000000	0,000771
654,000000	0,001062
653,000000	0,000780
652,000000	0,000747
651,000000	0,000897
650,000000	0,000768
649,000000	0,000739
648,000000	0,000523
647,000000	0,000581
646,000000	0,000955
645,000000	0,000897
644,000000	0,001101
643,000000	0,001080
642,000000	0,001130
641,000000	0,000877
640,000000	0,000802
639,000000	0,000889
638,000000	0,000856
637,000000	0,000782
636,000000	0,000940
635,000000	0,001073
634,000000	0,000894
633,000000	0,001115
632,000000	0,001210
631,000000	0,001073
630,000000	0,001127
629,000000	0,001061
628,000000	0,001556
627,000000	0,000978
626,000000	0,001281
625,000000	0,001094
624,000000	0,000932
623,000000	0,000911
622,000000	0,000878
621,000000	0,001077
620,000000	0,001323
619,000000	0,001415
618,000000	0,001336
617,000000	0,001165
616,000000	0,001315
615,000000	0,001274
614,000000	0,001140
613,000000	0,001090
612,000000	0,001349
611,000000	0,001353
610,000000	0,001149
609,000000	0,001637
608,000000	0,001320
607,000000	0,001536
606,000000	0,001395
605,000000	0,001582
604,000000	0,001370
603,000000	0,001427
602,000000	0,001369
601,000000	0,001323
600,000000	0,001527
599,000000	0,001448
598,000000	0,001315
597,000000	0,001244
596,000000	0,001431
595,000000	0,001339
594,000000	0,001294
593,000000	0,001564
592,000000	0,001357
591,000000	0,001628
590,000000	0,001475
589,000000	0,001168
588,000000	0,001352
587,000000	0,001328
586,000000	0,001291
585,000000	0,001343
584,000000	0,001244
583,000000	0,001467
582,000000	0,001570
581,000000	0,001336
580,000000	0,001321
579,000000	0,001305
578,000000	0,001286
577,000000	0,001506
576,000000	0,001431
575,000000	0,001687
574,000000	0,001599
573,000000	0,001634
572,000000	0,001546
571,000000	0,001407
570,000000	0,001479
569,000000	0,001267
568,000000	0,001938
567,000000	0,001823
566,000000	0,001713
565,000000	0,001391
564,000000	0,001506
563,000000	0,001727
562,000000	0,001417
561,000000	0,001608
560,000000	0,001503
559,000000	0,001704
558,000000	0,001594
557,000000	0,001595
556,000000	0,001717
555,000000	0,001539
554,000000	0,001409
553,000000	0,001908
552,000000	0,001680
551,000000	0,002138
550,000000	0,001731
549,000000	0,001994
548,000000	0,001708
547,000000	0,001768
546,000000	0,001932
545,000000	0,002088
544,000000	0,001877
543,000000	0,002016
542,000000	0,002089
541,000000	0,002098
540,000000	0,001911
539,000000	0,001911
538,000000	0,001915
537,000000	0,002152
536,000000	0,001808
535,000000	0,002062
534,000000	0,001931
533,000000	0,001753
532,000000	0,002092
531,000000	0,002101
530,000000	0,001986
529,000000	0,001867
528,000000	0,002037
527,000000	0,001944
526,000000	0,002151
525,000000	0,002021
524,000000	0,002207
523,000000	0,002156
522,000000	0,001982
521,000000	0,002104
520,000000	0,002049
519,000000	0,002514
518,000000	0,002023
517,000000	0,002276
516,000000	0,002286
515,000000	0,002026
514,000000	0,001959
513,000000	0,002200
512,000000	0,001996
511,000000	0,002304
510,000000	0,002237
509,000000	0,002503
508,000000	0,002329
507,000000	0,002312
506,000000	0,002193
505,000000	0,002886
504,000000	0,002644
503,000000	0,002542
502,000000	0,002305
501,000000	0,002347
500,000000	0,002676
499,000000	0,002642
498,000000	0,002912
497,000000	0,002501
496,000000	0,002813
495,000000	0,002877
494,000000	0,002543
493,000000	0,002783
492,000000	0,002238
491,000000	0,002630
490,000000	0,003201
489,000000	0,003013
488,000000	0,002902
487,000000	0,002835
486,000000	0,003197
485,000000	0,002759
484,000000	0,002943
483,000000	0,002822
482,000000	0,002712
481,000000	0,003502
480,000000	0,003148
479,000000	0,003510
478,000000	0,003057
477,000000	0,003419
476,000000	0,002994
475,000000	0,003070
474,000000	0,003116
473,000000	0,003294
472,000000	0,003559
471,000000	0,003534
470,000000	0,003546
469,000000	0,003365
468,000000	0,003224
467,000000	0,003589
466,000000	0,003477
465,000000	0,003723
464,000000	0,003587
463,000000	0,003935
462,000000	0,004182
461,000000	0,003767
460,000000	0,003763
459,000000	0,004138
458,000000	0,004025
457,000000	0,003735
456,000000	0,004168
455,000000	0,004114
454,000000	0,004163
453,000000	0,004159
452,000000	0,004292
451,000000	0,004542
450,000000	0,004448
449,000000	0,004751
448,000000	0,004286
447,000000	0,004872
446,000000	0,004268
445,000000	0,004422
444,000000	0,004959
443,000000	0,005411
442,000000	0,005382
441,000000	0,004927
440,000000	0,005429
439,000000	0,005307
438,000000	0,004990
437,000000	0,005429
436,000000	0,005964
435,000000	0,005565
434,000000	0,005812
433,000000	0,005894
432,000000	0,005635
431,000000	0,005669
430,000000	0,006126
429,000000	0,005739
428,000000	0,005889
427,000000	0,006423
426,000000	0,006597
425,000000	0,007100
424,000000	0,006417
423,000000	0,006813
422,000000	0,006919
421,000000	0,006960
420,000000	0,007279
419,000000	0,007167
418,000000	0,007377
417,000000	0,007506
416,000000	0,007858
415,000000	0,007955
414,000000	0,008295
413,000000	0,008431
412,000000	0,008183
411,000000	0,008405
410,000000	0,008682
409,000000	0,008973
408,000000	0,009018
407,000000	0,009131
406,000000	0,009156
405,000000	0,009693
404,000000	0,009845
403,000000	0,010383
402,000000	0,010059
401,000000	0,010350
400,000000	0,010832
399,000000	0,010593
398,000000	0,011331
397,000000	0,011189
396,000000	0,011011
395,000000	0,011785
394,000000	0,011588
393,000000	0,012311
392,000000	0,012285
391,000000	0,012543
390,000000	0,012883
