PE UV       SUBTECH     SPECTRUM    ASCII       PEDS        4.00        
   -1
36.Sample.Raw.asc
20/10/06
14:18:51.00
20/10/06
14:18:51.00
Analyst

390,000000
1
Lambda 25
501s11081509
PerkinElmer UV WinLab 6.0.3.0730 / Lambda25 1.27

480
2
1
0
0
Both on
1
1
1
None
0
0
0
0
 
 
0
0
0
0
0
 
 
 
0
 
0
326
0
 
0
 
 
 
0
0
0
 
0
 
 
 
0
 
 
0
0
0
0
0
 
 
 
 
0
0


#HDR
-1
-1
#GR
nm
A
1.0
0.0
700,000000
-1,000000
311
8
0,011739
0,001891
#DATA
700,000000	0,002326
699,000000	0,002167
698,000000	0,002319
697,000000	0,002106
696,000000	0,002021
695,000000	0,002218
694,000000	0,001894
693,000000	0,002240
692,000000	0,001891
691,000000	0,002283
690,000000	0,002271
689,000000	0,002362
688,000000	0,002441
687,000000	0,002274
686,000000	0,002286
685,000000	0,001973
684,000000	0,002241
683,000000	0,002211
682,000000	0,002290
681,000000	0,002244
680,000000	0,002473
679,000000	0,002113
678,000000	0,002478
677,000000	0,002210
676,000000	0,002239
675,000000	0,001959
674,000000	0,002344
673,000000	0,002671
672,000000	0,002568
671,000000	0,002408
670,000000	0,002771
669,000000	0,002590
668,000000	0,002346
667,000000	0,002297
666,000000	0,002654
665,000000	0,002173
664,000000	0,002307
663,000000	0,002556
662,000000	0,002390
661,000000	0,002416
660,000000	0,002495
659,000000	0,002397
658,000000	0,002323
657,000000	0,002410
656,000000	0,002651
655,000000	0,002506
654,000000	0,002823
653,000000	0,002564
652,000000	0,002583
651,000000	0,002658
650,000000	0,002491
649,000000	0,002489
648,000000	0,002637
647,000000	0,002593
646,000000	0,002855
645,000000	0,002715
644,000000	0,002801
643,000000	0,002756
642,000000	0,003018
641,000000	0,002536
640,000000	0,002716
639,000000	0,002711
638,000000	0,002728
637,000000	0,002913
636,000000	0,002884
635,000000	0,002880
634,000000	0,002831
633,000000	0,002834
632,000000	0,003180
631,000000	0,002801
630,000000	0,003143
629,000000	0,003290
628,000000	0,003309
627,000000	0,002927
626,000000	0,003228
625,000000	0,003340
624,000000	0,003124
623,000000	0,003183
622,000000	0,003096
621,000000	0,003098
620,000000	0,003223
619,000000	0,003194
618,000000	0,003286
617,000000	0,003203
616,000000	0,003529
615,000000	0,003114
614,000000	0,003242
613,000000	0,003371
612,000000	0,003322
611,000000	0,003484
610,000000	0,003227
609,000000	0,003371
608,000000	0,003376
607,000000	0,003551
606,000000	0,003354
605,000000	0,003467
604,000000	0,003351
603,000000	0,003462
602,000000	0,003424
601,000000	0,003559
600,000000	0,003495
599,000000	0,003508
598,000000	0,003399
597,000000	0,003459
596,000000	0,003679
595,000000	0,003402
594,000000	0,003480
593,000000	0,003637
592,000000	0,003755
591,000000	0,003749
590,000000	0,003744
589,000000	0,003525
588,000000	0,003195
587,000000	0,003517
586,000000	0,003561
585,000000	0,003540
584,000000	0,003364
583,000000	0,004066
582,000000	0,003614
581,000000	0,003603
580,000000	0,003835
579,000000	0,003677
578,000000	0,003682
577,000000	0,003625
576,000000	0,003958
575,000000	0,003917
574,000000	0,004084
573,000000	0,004059
572,000000	0,003600
571,000000	0,003496
570,000000	0,004038
569,000000	0,004063
568,000000	0,003940
567,000000	0,004183
566,000000	0,004121
565,000000	0,003927
564,000000	0,003863
563,000000	0,004122
562,000000	0,003978
561,000000	0,004077
560,000000	0,003746
559,000000	0,004469
558,000000	0,003920
557,000000	0,004002
556,000000	0,004197
555,000000	0,004019
554,000000	0,003799
553,000000	0,004439
552,000000	0,004331
551,000000	0,004406
550,000000	0,004250
549,000000	0,004287
548,000000	0,004085
547,000000	0,004452
546,000000	0,004299
545,000000	0,004690
544,000000	0,004035
543,000000	0,004469
542,000000	0,004597
541,000000	0,004543
540,000000	0,004449
539,000000	0,004415
538,000000	0,004346
537,000000	0,004511
536,000000	0,004597
535,000000	0,004899
534,000000	0,004549
533,000000	0,004286
532,000000	0,004803
531,000000	0,004783
530,000000	0,004245
529,000000	0,004379
528,000000	0,004550
527,000000	0,004762
526,000000	0,004914
525,000000	0,004644
524,000000	0,004809
523,000000	0,004886
522,000000	0,004942
521,000000	0,004684
520,000000	0,004765
519,000000	0,004851
518,000000	0,004734
517,000000	0,005124
516,000000	0,004550
515,000000	0,004928
514,000000	0,004920
513,000000	0,004838
512,000000	0,004897
511,000000	0,005085
510,000000	0,005188
509,000000	0,004871
508,000000	0,005050
507,000000	0,005113
506,000000	0,005016
505,000000	0,005428
504,000000	0,005368
503,000000	0,005295
502,000000	0,005241
501,000000	0,005487
500,000000	0,005305
499,000000	0,005474
498,000000	0,005634
497,000000	0,005264
496,000000	0,005415
495,000000	0,005440
494,000000	0,005348
493,000000	0,005325
492,000000	0,005257
491,000000	0,005394
490,000000	0,005863
489,000000	0,005740
488,000000	0,005624
487,000000	0,005905
486,000000	0,005546
485,000000	0,005553
484,000000	0,005664
483,000000	0,005552
482,000000	0,005716
481,000000	0,006109
480,000000	0,005979
479,000000	0,006266
478,000000	0,006033
477,000000	0,005747
476,000000	0,005725
475,000000	0,005673
474,000000	0,005839
473,000000	0,005936
472,000000	0,006304
471,000000	0,006573
470,000000	0,006281
469,000000	0,006407
468,000000	0,006225
467,000000	0,006098
466,000000	0,006443
465,000000	0,006430
464,000000	0,006305
463,000000	0,006185
462,000000	0,006990
461,000000	0,006195
460,000000	0,006649
459,000000	0,006804
458,000000	0,006487
457,000000	0,006642
456,000000	0,006713
455,000000	0,006900
454,000000	0,006689
453,000000	0,007225
452,000000	0,007009
451,000000	0,007508
450,000000	0,007286
449,000000	0,007162
448,000000	0,006748
447,000000	0,006989
446,000000	0,007227
445,000000	0,007298
444,000000	0,007811
443,000000	0,007987
442,000000	0,007442
441,000000	0,007384
440,000000	0,008115
439,000000	0,007582
438,000000	0,007911
437,000000	0,008189
436,000000	0,008540
435,000000	0,008194
434,000000	0,008904
433,000000	0,008608
432,000000	0,008345
431,000000	0,008532
430,000000	0,009191
429,000000	0,009014
428,000000	0,008894
427,000000	0,009540
426,000000	0,009893
425,000000	0,009932
424,000000	0,009563
423,000000	0,009820
422,000000	0,009724
421,000000	0,009848
420,000000	0,009810
419,000000	0,009955
418,000000	0,009917
417,000000	0,010020
416,000000	0,010351
415,000000	0,010553
414,000000	0,010671
413,000000	0,010686
412,000000	0,010633
411,000000	0,010812
410,000000	0,010884
409,000000	0,010875
408,000000	0,010776
407,000000	0,010823
406,000000	0,010953
405,000000	0,010828
404,000000	0,010988
403,000000	0,011344
402,000000	0,010779
401,000000	0,011174
400,000000	0,011064
399,000000	0,011069
398,000000	0,011370
397,000000	0,011294
396,000000	0,011290
395,000000	0,011694
394,000000	0,011099
393,000000	0,011739
392,000000	0,011399
391,000000	0,011237
390,000000	0,011468
