PE UV       SUBTECH     SPECTRUM    ASCII       PEDS        4.00        
   -1
37.Sample.Raw.asc
20/10/06
14:20:58.00
20/10/06
14:20:58.00
Analyst

390,000000
1
Lambda 25
501s11081509
PerkinElmer UV WinLab 6.0.3.0730 / Lambda25 1.27

480
2
1
0
0
Both on
1
1
1
None
0
0
0
0
 
 
0
0
0
0
0
 
 
 
0
 
0
326
0
 
0
 
 
 
0
0
0
 
0
 
 
 
0
 
 
0
0
0
0
0
 
 
 
 
0
0


#HDR
-1
-1
#GR
nm
A
1.0
0.0
700,000000
-1,000000
311
8
1,360110
0,016304
#DATA
700,000000	0,016304
699,000000	0,016426
698,000000	0,016305
697,000000	0,016490
696,000000	0,016416
695,000000	0,016702
694,000000	0,016450
693,000000	0,016752
692,000000	0,016560
691,000000	0,016678
690,000000	0,016900
689,000000	0,016857
688,000000	0,016901
687,000000	0,016902
686,000000	0,016833
685,000000	0,017031
684,000000	0,017137
683,000000	0,016832
682,000000	0,017231
681,000000	0,017366
680,000000	0,017505
679,000000	0,017476
678,000000	0,017542
677,000000	0,017351
676,000000	0,017574
675,000000	0,017476
674,000000	0,017583
673,000000	0,017896
672,000000	0,017990
671,000000	0,017604
670,000000	0,018309
669,000000	0,017837
668,000000	0,018009
667,000000	0,017804
666,000000	0,018270
665,000000	0,017888
664,000000	0,018149
663,000000	0,018523
662,000000	0,018080
661,000000	0,018371
660,000000	0,018276
659,000000	0,018406
658,000000	0,018264
657,000000	0,018554
656,000000	0,018454
655,000000	0,018554
654,000000	0,018657
653,000000	0,018943
652,000000	0,018757
651,000000	0,018746
650,000000	0,018888
649,000000	0,018706
648,000000	0,019006
647,000000	0,018880
646,000000	0,019016
645,000000	0,018923
644,000000	0,019201
643,000000	0,019530
642,000000	0,019505
641,000000	0,019473
640,000000	0,019316
639,000000	0,019407
638,000000	0,019669
637,000000	0,019357
636,000000	0,019463
635,000000	0,019722
634,000000	0,019730
633,000000	0,019573
632,000000	0,020137
631,000000	0,019837
630,000000	0,020103
629,000000	0,020114
628,000000	0,020496
627,000000	0,020304
626,000000	0,020274
625,000000	0,020608
624,000000	0,020382
623,000000	0,020505
622,000000	0,020579
621,000000	0,020682
620,000000	0,020781
619,000000	0,020951
618,000000	0,020828
617,000000	0,021009
616,000000	0,021108
615,000000	0,020797
614,000000	0,021128
613,000000	0,021266
612,000000	0,021294
611,000000	0,021299
610,000000	0,021112
609,000000	0,021375
608,000000	0,021654
607,000000	0,021781
606,000000	0,021687
605,000000	0,021805
604,000000	0,021777
603,000000	0,022000
602,000000	0,022003
601,000000	0,021970
600,000000	0,022227
599,000000	0,022167
598,000000	0,022230
597,000000	0,022312
596,000000	0,022560
595,000000	0,022518
594,000000	0,022508
593,000000	0,022812
592,000000	0,022813
591,000000	0,022790
590,000000	0,022993
589,000000	0,022484
588,000000	0,022822
587,000000	0,022904
586,000000	0,023300
585,000000	0,023267
584,000000	0,023105
583,000000	0,023437
582,000000	0,023484
581,000000	0,023223
580,000000	0,023585
579,000000	0,023545
578,000000	0,023732
577,000000	0,023618
576,000000	0,023966
575,000000	0,023990
574,000000	0,024236
573,000000	0,023918
572,000000	0,024075
571,000000	0,024093
570,000000	0,024524
569,000000	0,024710
568,000000	0,024510
567,000000	0,024994
566,000000	0,024786
565,000000	0,024835
564,000000	0,024953
563,000000	0,024766
562,000000	0,025069
561,000000	0,025025
560,000000	0,025326
559,000000	0,025783
558,000000	0,025813
557,000000	0,025754
556,000000	0,026026
555,000000	0,025764
554,000000	0,025866
553,000000	0,026494
552,000000	0,026576
551,000000	0,026469
550,000000	0,026694
549,000000	0,026915
548,000000	0,026880
547,000000	0,027026
546,000000	0,026958
545,000000	0,027408
544,000000	0,027281
543,000000	0,027350
542,000000	0,027681
541,000000	0,027493
540,000000	0,027659
539,000000	0,027837
538,000000	0,027948
537,000000	0,028115
536,000000	0,028101
535,000000	0,028247
534,000000	0,028422
533,000000	0,028402
532,000000	0,028613
531,000000	0,028960
530,000000	0,028835
529,000000	0,028942
528,000000	0,028948
527,000000	0,029366
526,000000	0,029516
525,000000	0,029378
524,000000	0,029728
523,000000	0,029754
522,000000	0,029802
521,000000	0,030246
520,000000	0,030151
519,000000	0,030712
518,000000	0,030243
517,000000	0,030576
516,000000	0,030488
515,000000	0,030783
514,000000	0,030722
513,000000	0,030934
512,000000	0,031186
511,000000	0,031449
510,000000	0,031504
509,000000	0,031529
508,000000	0,031866
507,000000	0,031965
506,000000	0,031712
505,000000	0,032482
504,000000	0,032400
503,000000	0,032502
502,000000	0,032588
501,000000	0,032859
500,000000	0,033001
499,000000	0,033223
498,000000	0,033324
497,000000	0,033204
496,000000	0,033921
495,000000	0,033673
494,000000	0,033679
493,000000	0,034003
492,000000	0,034124
491,000000	0,034610
490,000000	0,035241
489,000000	0,034807
488,000000	0,034765
487,000000	0,035323
486,000000	0,035242
485,000000	0,035270
484,000000	0,035842
483,000000	0,035947
482,000000	0,036178
481,000000	0,036823
480,000000	0,036839
479,000000	0,037042
478,000000	0,036785
477,000000	0,037334
476,000000	0,037181
475,000000	0,037564
474,000000	0,038185
473,000000	0,038369
472,000000	0,038735
471,000000	0,039028
470,000000	0,039073
469,000000	0,039194
468,000000	0,039388
467,000000	0,039682
466,000000	0,040147
465,000000	0,040775
464,000000	0,040969
463,000000	0,041323
462,000000	0,042063
461,000000	0,041930
460,000000	0,042368
459,000000	0,042860
458,000000	0,043371
457,000000	0,043772
456,000000	0,044590
455,000000	0,045008
454,000000	0,045529
453,000000	0,046443
452,000000	0,046996
451,000000	0,047855
450,000000	0,048171
449,000000	0,049374
448,000000	0,050151
447,000000	0,051391
446,000000	0,052788
445,000000	0,053666
444,000000	0,055367
443,000000	0,057287
442,000000	0,059384
441,000000	0,060963
440,000000	0,063451
439,000000	0,066682
438,000000	0,069815
437,000000	0,073975
436,000000	0,079464
435,000000	0,084227
434,000000	0,091495
433,000000	0,099694
432,000000	0,109299
431,000000	0,120928
430,000000	0,135939
429,000000	0,152574
428,000000	0,171192
427,000000	0,192821
426,000000	0,216967
425,000000	0,241451
424,000000	0,270167
423,000000	0,303303
422,000000	0,339605
421,000000	0,375395
420,000000	0,420072
419,000000	0,468460
418,000000	0,520051
417,000000	0,571853
416,000000	0,627086
415,000000	0,689255
414,000000	0,753871
413,000000	0,817742
412,000000	0,884524
411,000000	0,952468
410,000000	1,019071
409,000000	1,082578
408,000000	1,141484
407,000000	1,193235
406,000000	1,237521
405,000000	1,274221
404,000000	1,303452
403,000000	1,322551
402,000000	1,338196
401,000000	1,352119
400,000000	1,355540
399,000000	1,360071
398,000000	1,360110
397,000000	1,357664
396,000000	1,360105
395,000000	1,352125
394,000000	1,351985
393,000000	1,351945
392,000000	1,346419
391,000000	1,340988
390,000000	1,337191
