PE UV       SUBTECH     SPECTRUM    ASCII       PEDS        4.00        
   -1
44.Sample.Raw.asc
20/10/06
14:58:31.00
20/10/06
14:58:31.00
Analyst

390,000000
1
Lambda 25
501s11081509
PerkinElmer UV WinLab 6.0.3.0730 / Lambda25 1.27

480
2
1
0
0
Both on
1
1
1
None
0
0
0
0
 
 
0
0
0
0
0
 
 
 
0
 
0
326
0
 
0
 
 
 
0
0
0
 
0
 
 
 
0
 
 
0
0
0
0
0
 
 
 
 
0
0


#HDR
-1
-1
#GR
nm
A
1.0
0.0
700,000000
-1,000000
311
8
0,010927
-0,000417
#DATA
700,000000	0,000217
699,000000	0,000098
698,000000	0,000299
697,000000	0,000070
696,000000	0,000070
695,000000	0,000263
694,000000	-0,000037
693,000000	0,000086
692,000000	-0,000140
691,000000	0,000000
690,000000	0,000082
689,000000	0,000169
688,000000	0,000280
687,000000	0,000239
686,000000	0,000082
685,000000	-0,000074
684,000000	0,000198
683,000000	-0,000082
682,000000	-0,000054
681,000000	-0,000070
680,000000	-0,000181
679,000000	0,000025
678,000000	-0,000029
677,000000	-0,000206
676,000000	-0,000087
675,000000	-0,000417
674,000000	-0,000078
673,000000	0,000314
672,000000	0,000211
671,000000	-0,000165
670,000000	0,000347
669,000000	-0,000264
668,000000	0,000182
667,000000	-0,000141
666,000000	0,000240
665,000000	0,000083
664,000000	-0,000046
663,000000	0,000186
662,000000	-0,000108
661,000000	0,000041
660,000000	0,000232
659,000000	-0,000133
658,000000	-0,000004
657,000000	0,000116
656,000000	0,000361
655,000000	0,000075
654,000000	0,000323
653,000000	0,000124
652,000000	-0,000075
651,000000	0,000187
650,000000	0,000149
649,000000	0,000025
648,000000	0,000324
647,000000	0,000295
646,000000	0,000336
645,000000	0,000042
644,000000	0,000432
643,000000	0,000332
642,000000	0,000328
641,000000	0,000345
640,000000	0,000224
639,000000	0,000191
638,000000	0,000336
637,000000	-0,000137
636,000000	-0,000025
635,000000	0,000046
634,000000	0,000125
633,000000	0,000337
632,000000	0,000432
631,000000	0,000195
630,000000	0,000307
629,000000	0,000403
628,000000	0,000573
627,000000	0,000224
626,000000	0,000249
625,000000	0,000303
624,000000	0,000362
623,000000	0,000258
622,000000	0,000183
621,000000	0,000449
620,000000	0,000607
619,000000	0,000636
618,000000	0,000495
617,000000	0,000453
616,000000	0,000728
615,000000	0,000316
614,000000	0,000299
613,000000	0,000591
612,000000	0,000412
611,000000	0,000491
610,000000	0,000250
609,000000	0,000262
608,000000	0,000470
607,000000	0,000491
606,000000	0,000536
605,000000	0,000532
604,000000	0,000308
603,000000	0,000607
602,000000	0,000574
601,000000	0,000461
600,000000	0,000357
599,000000	0,000395
598,000000	0,000432
597,000000	0,000570
596,000000	0,000678
595,000000	0,000607
594,000000	0,000416
593,000000	0,000752
592,000000	0,000869
591,000000	0,000807
590,000000	0,000587
589,000000	0,000683
588,000000	0,000246
587,000000	0,000831
586,000000	0,000597
585,000000	0,000815
584,000000	0,000431
583,000000	0,000620
582,000000	0,000663
581,000000	0,000865
580,000000	0,000811
579,000000	0,000913
578,000000	0,000817
577,000000	0,000637
576,000000	0,000742
575,000000	0,000748
574,000000	0,000697
573,000000	0,000622
572,000000	0,000491
571,000000	0,000550
570,000000	0,000749
569,000000	0,001186
568,000000	0,001008
567,000000	0,001063
566,000000	0,000890
565,000000	0,000555
564,000000	0,000835
563,000000	0,000971
562,000000	0,000733
561,000000	0,000814
560,000000	0,000581
559,000000	0,000733
558,000000	0,000941
557,000000	0,000652
556,000000	0,001025
555,000000	0,000678
554,000000	0,000513
553,000000	0,000999
552,000000	0,000932
551,000000	0,001148
550,000000	0,001004
549,000000	0,001013
548,000000	0,001008
547,000000	0,001296
546,000000	0,001257
545,000000	0,001431
544,000000	0,001071
543,000000	0,001193
542,000000	0,001185
541,000000	0,000995
540,000000	0,000897
539,000000	0,001071
538,000000	0,001037
537,000000	0,001126
536,000000	0,001172
535,000000	0,001193
534,000000	0,001253
533,000000	0,001401
532,000000	0,001299
531,000000	0,001541
530,000000	0,001350
529,000000	0,001337
528,000000	0,001299
527,000000	0,001231
526,000000	0,001311
525,000000	0,001079
524,000000	0,001574
523,000000	0,001312
522,000000	0,001252
521,000000	0,001396
520,000000	0,001333
519,000000	0,001709
518,000000	0,001175
517,000000	0,001552
516,000000	0,001197
515,000000	0,001361
514,000000	0,001543
513,000000	0,001386
512,000000	0,001289
511,000000	0,001707
510,000000	0,001669
509,000000	0,001804
508,000000	0,001782
507,000000	0,001749
506,000000	0,001888
505,000000	0,002183
504,000000	0,001920
503,000000	0,002127
502,000000	0,001840
501,000000	0,001992
500,000000	0,001940
499,000000	0,002083
498,000000	0,002450
497,000000	0,001964
496,000000	0,002331
495,000000	0,001976
494,000000	0,001947
493,000000	0,002166
492,000000	0,001930
491,000000	0,002368
490,000000	0,002580
489,000000	0,002197
488,000000	0,002315
487,000000	0,002387
486,000000	0,002542
485,000000	0,002193
484,000000	0,002555
483,000000	0,002226
482,000000	0,002218
481,000000	0,002619
480,000000	0,002659
479,000000	0,002949
478,000000	0,002512
477,000000	0,002486
476,000000	0,002500
475,000000	0,002437
474,000000	0,002622
473,000000	0,002892
472,000000	0,002933
471,000000	0,003099
470,000000	0,002924
469,000000	0,002955
468,000000	0,002780
467,000000	0,002717
466,000000	0,002629
465,000000	0,002892
464,000000	0,002692
463,000000	0,003014
462,000000	0,003383
461,000000	0,002883
460,000000	0,003320
459,000000	0,003338
458,000000	0,003234
457,000000	0,003300
456,000000	0,003367
455,000000	0,003496
454,000000	0,003408
453,000000	0,003608
452,000000	0,003524
451,000000	0,003749
450,000000	0,003564
449,000000	0,003884
448,000000	0,003683
447,000000	0,003726
446,000000	0,003404
445,000000	0,003724
444,000000	0,004119
443,000000	0,004416
442,000000	0,004198
441,000000	0,004077
440,000000	0,004234
439,000000	0,004631
438,000000	0,004189
437,000000	0,003983
436,000000	0,004744
435,000000	0,004629
434,000000	0,004319
433,000000	0,004685
432,000000	0,004379
431,000000	0,004400
430,000000	0,004843
429,000000	0,004628
428,000000	0,004726
427,000000	0,005333
426,000000	0,005467
425,000000	0,005620
424,000000	0,004798
423,000000	0,005310
422,000000	0,005814
421,000000	0,005738
420,000000	0,005965
419,000000	0,006069
418,000000	0,006371
417,000000	0,006283
416,000000	0,006912
415,000000	0,006679
414,000000	0,006979
413,000000	0,006755
412,000000	0,006893
411,000000	0,007155
410,000000	0,007349
409,000000	0,007649
408,000000	0,007414
407,000000	0,007493
406,000000	0,007687
405,000000	0,007654
404,000000	0,007906
403,000000	0,008204
402,000000	0,008206
401,000000	0,008713
400,000000	0,008721
399,000000	0,008813
398,000000	0,009158
397,000000	0,009321
396,000000	0,009486
395,000000	0,009902
394,000000	0,009880
393,000000	0,010218
392,000000	0,010510
391,000000	0,010557
390,000000	0,010927
