PE UV       SUBTECH     SPECTRUM    ASCII       PEDS        4.00        
   -1
45.Sample.Raw.asc
20/10/06
14:23:10.00
20/10/06
14:23:10.00
Analyst

390,000000
1
Lambda 25
501s11081509
PerkinElmer UV WinLab 6.0.3.0730 / Lambda25 1.27

480
2
1
0
0
Both on
1
1
1
None
0
0
0
0
 
 
0
0
0
0
0
 
 
 
0
 
0
326
0
 
0
 
 
 
0
0
0
 
0
 
 
 
0
 
 
0
0
0
0
0
 
 
 
 
0
0


#HDR
-1
-1
#GR
nm
A
1.0
0.0
700,000000
-1,000000
311
8
0,014945
0,000364
#DATA
700,000000	0,000710
699,000000	0,000525
698,000000	0,000907
697,000000	0,000657
696,000000	0,000571
695,000000	0,000690
694,000000	0,000695
693,000000	0,000806
692,000000	0,000440
691,000000	0,000765
690,000000	0,000666
689,000000	0,000749
688,000000	0,000794
687,000000	0,000721
686,000000	0,000655
685,000000	0,000507
684,000000	0,000783
683,000000	0,000433
682,000000	0,000809
681,000000	0,000503
680,000000	0,000644
679,000000	0,000417
678,000000	0,000524
677,000000	0,000533
676,000000	0,000665
675,000000	0,000364
674,000000	0,000653
673,000000	0,000930
672,000000	0,000971
671,000000	0,000372
670,000000	0,001058
669,000000	0,000595
668,000000	0,000608
667,000000	0,000654
666,000000	0,000670
665,000000	0,000625
664,000000	0,000526
663,000000	0,000986
662,000000	0,000497
661,000000	0,000671
660,000000	0,000530
659,000000	0,000444
658,000000	0,000751
657,000000	0,000771
656,000000	0,000950
655,000000	0,000402
654,000000	0,000800
653,000000	0,000668
652,000000	0,000606
651,000000	0,000768
650,000000	0,000685
649,000000	0,000507
648,000000	0,000718
647,000000	0,000781
646,000000	0,000980
645,000000	0,000594
644,000000	0,000839
643,000000	0,000922
642,000000	0,001155
641,000000	0,000415
640,000000	0,000694
639,000000	0,000765
638,000000	0,000935
637,000000	0,000594
636,000000	0,000540
635,000000	0,000478
634,000000	0,000645
633,000000	0,000832
632,000000	0,000860
631,000000	0,000811
630,000000	0,000765
629,000000	0,000786
628,000000	0,001164
627,000000	0,000749
626,000000	0,001044
625,000000	0,000782
624,000000	0,000720
623,000000	0,000665
622,000000	0,000649
621,000000	0,000878
620,000000	0,001002
619,000000	0,001036
618,000000	0,000986
617,000000	0,000915
616,000000	0,001136
615,000000	0,000778
614,000000	0,000824
613,000000	0,000728
612,000000	0,000803
611,000000	0,000832
610,000000	0,000908
609,000000	0,001036
608,000000	0,001149
607,000000	0,001223
606,000000	0,001199
605,000000	0,001036
604,000000	0,000699
603,000000	0,001282
602,000000	0,001086
601,000000	0,000890
600,000000	0,001265
599,000000	0,001048
598,000000	0,000952
597,000000	0,000799
596,000000	0,001219
595,000000	0,001127
594,000000	0,000969
593,000000	0,001206
592,000000	0,001519
591,000000	0,001487
590,000000	0,001216
589,000000	0,001335
588,000000	0,001110
587,000000	0,001332
586,000000	0,001312
585,000000	0,001205
584,000000	0,001114
583,000000	0,001140
582,000000	0,001368
581,000000	0,001282
580,000000	0,001426
579,000000	0,001448
578,000000	0,001058
577,000000	0,001452
576,000000	0,001473
575,000000	0,001717
574,000000	0,001527
573,000000	0,001456
572,000000	0,001453
571,000000	0,001288
570,000000	0,001462
569,000000	0,001793
568,000000	0,001692
567,000000	0,001789
566,000000	0,001892
565,000000	0,001553
564,000000	0,001774
563,000000	0,001914
562,000000	0,001944
561,000000	0,001889
560,000000	0,001669
559,000000	0,001840
558,000000	0,001781
557,000000	0,002032
556,000000	0,002066
555,000000	0,001922
554,000000	0,001655
553,000000	0,002112
552,000000	0,002113
551,000000	0,002125
550,000000	0,001964
549,000000	0,002244
548,000000	0,002291
547,000000	0,002397
546,000000	0,002357
545,000000	0,002849
544,000000	0,002302
543,000000	0,002462
542,000000	0,002424
541,000000	0,002268
540,000000	0,002693
539,000000	0,002467
538,000000	0,002446
537,000000	0,002819
536,000000	0,002866
535,000000	0,002951
534,000000	0,002721
533,000000	0,002667
532,000000	0,002720
531,000000	0,003091
530,000000	0,002980
529,000000	0,002870
528,000000	0,002900
527,000000	0,003206
526,000000	0,003277
525,000000	0,002960
524,000000	0,003350
523,000000	0,003184
522,000000	0,003261
521,000000	0,003354
520,000000	0,003205
519,000000	0,003752
518,000000	0,003591
517,000000	0,003760
516,000000	0,003438
515,000000	0,003837
514,000000	0,003556
513,000000	0,003726
512,000000	0,003874
511,000000	0,003956
510,000000	0,004182
509,000000	0,003896
508,000000	0,004172
507,000000	0,004032
506,000000	0,004015
505,000000	0,004287
504,000000	0,004351
503,000000	0,004575
502,000000	0,004342
501,000000	0,004413
500,000000	0,004522
499,000000	0,004564
498,000000	0,004660
497,000000	0,004231
496,000000	0,004654
495,000000	0,004526
494,000000	0,004464
493,000000	0,004440
492,000000	0,004479
491,000000	0,004799
490,000000	0,005205
489,000000	0,004860
488,000000	0,004774
487,000000	0,004804
486,000000	0,004968
485,000000	0,004835
484,000000	0,005002
483,000000	0,005110
482,000000	0,005015
481,000000	0,005289
480,000000	0,005219
479,000000	0,005403
478,000000	0,005085
477,000000	0,005182
476,000000	0,004985
475,000000	0,005413
474,000000	0,005176
473,000000	0,005502
472,000000	0,005721
471,000000	0,005590
470,000000	0,005307
469,000000	0,005712
468,000000	0,005373
467,000000	0,005574
466,000000	0,005863
465,000000	0,005500
464,000000	0,005520
463,000000	0,005741
462,000000	0,005772
461,000000	0,005763
460,000000	0,005682
459,000000	0,005858
458,000000	0,006119
457,000000	0,005563
456,000000	0,006074
455,000000	0,006171
454,000000	0,005895
453,000000	0,006092
452,000000	0,005867
451,000000	0,006250
450,000000	0,006015
449,000000	0,006268
448,000000	0,006086
447,000000	0,006365
446,000000	0,006245
445,000000	0,006066
444,000000	0,006492
443,000000	0,006624
442,000000	0,006626
441,000000	0,006572
440,000000	0,006692
439,000000	0,007288
438,000000	0,006919
437,000000	0,007011
436,000000	0,007300
435,000000	0,007005
434,000000	0,007063
433,000000	0,007336
432,000000	0,007272
431,000000	0,007823
430,000000	0,007495
429,000000	0,007373
428,000000	0,007771
427,000000	0,007899
426,000000	0,008146
425,000000	0,008255
424,000000	0,007711
423,000000	0,008016
422,000000	0,008293
421,000000	0,008125
420,000000	0,008257
419,000000	0,008471
418,000000	0,008669
417,000000	0,008846
416,000000	0,009164
415,000000	0,009195
414,000000	0,009623
413,000000	0,009577
412,000000	0,009472
411,000000	0,009768
410,000000	0,009836
409,000000	0,010285
408,000000	0,010313
407,000000	0,010369
406,000000	0,010861
405,000000	0,010937
404,000000	0,011373
403,000000	0,011680
402,000000	0,011535
401,000000	0,011940
400,000000	0,012179
399,000000	0,012535
398,000000	0,013301
397,000000	0,013193
396,000000	0,013374
395,000000	0,013892
394,000000	0,013835
393,000000	0,013840
392,000000	0,014521
391,000000	0,014807
390,000000	0,014945
