PE UV       SUBTECH     SPECTRUM    ASCII       PEDS        4.00        
   -1
46.Sample.Raw.asc
20/10/06
14:25:21.00
20/10/06
14:25:21.00
Analyst

390,000000
1
Lambda 25
501s11081509
PerkinElmer UV WinLab 6.0.3.0730 / Lambda25 1.27

480
2
1
0
0
Both on
1
1
1
None
0
0
0
0
 
 
0
0
0
0
0
 
 
 
0
 
0
326
0
 
0
 
 
 
0
0
0
 
0
 
 
 
0
 
 
0
0
0
0
0
 
 
 
 
0
0


#HDR
-1
-1
#GR
nm
A
1.0
0.0
700,000000
-1,000000
311
8
0,052879
-0,000078
#DATA
700,000000	0,000394
699,000000	0,000390
698,000000	0,000464
697,000000	0,000464
696,000000	-0,000078
695,000000	0,000431
694,000000	0,000074
693,000000	0,000382
692,000000	0,000078
691,000000	0,000284
690,000000	0,000263
689,000000	0,000473
688,000000	0,000621
687,000000	0,000243
686,000000	0,000346
685,000000	0,000148
684,000000	0,000494
683,000000	0,000503
682,000000	0,000433
681,000000	0,000421
680,000000	0,000665
679,000000	0,000293
678,000000	0,000524
677,000000	0,000124
676,000000	0,000847
675,000000	0,000194
674,000000	0,000550
673,000000	0,000773
672,000000	0,000756
671,000000	0,000306
670,000000	0,000827
669,000000	0,000513
668,000000	0,000414
667,000000	0,000530
666,000000	0,000786
665,000000	0,000306
664,000000	0,000522
663,000000	0,000625
662,000000	0,000712
661,000000	0,000613
660,000000	0,000642
659,000000	0,000464
658,000000	0,000634
657,000000	0,000568
656,000000	0,000651
655,000000	0,000718
654,000000	0,000506
653,000000	0,000784
652,000000	0,000622
651,000000	0,000660
650,000000	0,000901
649,000000	0,000411
648,000000	0,000710
647,000000	0,000361
646,000000	0,001051
645,000000	0,000644
644,000000	0,000934
643,000000	0,001035
642,000000	0,000897
641,000000	0,000694
640,000000	0,000761
639,000000	0,000814
638,000000	0,000698
637,000000	0,000844
636,000000	0,000777
635,000000	0,000503
634,000000	0,000815
633,000000	0,000657
632,000000	0,000960
631,000000	0,000878
630,000000	0,000985
629,000000	0,001115
628,000000	0,001202
627,000000	0,001157
626,000000	0,001106
625,000000	0,001244
624,000000	0,000949
623,000000	0,000840
622,000000	0,000791
621,000000	0,001140
620,000000	0,001290
619,000000	0,001169
618,000000	0,001377
617,000000	0,001228
616,000000	0,001386
615,000000	0,000953
614,000000	0,001228
613,000000	0,001061
612,000000	0,001207
611,000000	0,001328
610,000000	0,000937
609,000000	0,001407
608,000000	0,001411
607,000000	0,001415
606,000000	0,001278
605,000000	0,001469
604,000000	0,001191
603,000000	0,001394
602,000000	0,001531
601,000000	0,001365
600,000000	0,001411
599,000000	0,001494
598,000000	0,001544
597,000000	0,001632
596,000000	0,001594
595,000000	0,001560
594,000000	0,001611
593,000000	0,001927
592,000000	0,001970
591,000000	0,001766
590,000000	0,001730
589,000000	0,001581
588,000000	0,001749
587,000000	0,001776
586,000000	0,001919
585,000000	0,001897
584,000000	0,001496
583,000000	0,002173
582,000000	0,001852
581,000000	0,001939
580,000000	0,002101
579,000000	0,002060
578,000000	0,001957
577,000000	0,001984
576,000000	0,002248
575,000000	0,002107
574,000000	0,002320
573,000000	0,002106
572,000000	0,002481
571,000000	0,002163
570,000000	0,002546
569,000000	0,002818
568,000000	0,002606
567,000000	0,003040
566,000000	0,002479
565,000000	0,002544
564,000000	0,002506
563,000000	0,002739
562,000000	0,002523
561,000000	0,002830
560,000000	0,002998
559,000000	0,003197
558,000000	0,002939
557,000000	0,003042
556,000000	0,003369
555,000000	0,003221
554,000000	0,003095
553,000000	0,003551
552,000000	0,003587
551,000000	0,003492
550,000000	0,003669
549,000000	0,003586
548,000000	0,003816
547,000000	0,003935
546,000000	0,004193
545,000000	0,004558
544,000000	0,004244
543,000000	0,004546
542,000000	0,003931
541,000000	0,004662
540,000000	0,004278
539,000000	0,004624
538,000000	0,004637
537,000000	0,004943
536,000000	0,004840
535,000000	0,005027
534,000000	0,005092
533,000000	0,005059
532,000000	0,005338
531,000000	0,005412
530,000000	0,005390
529,000000	0,005914
528,000000	0,005610
527,000000	0,006123
526,000000	0,005966
525,000000	0,006091
524,000000	0,006302
523,000000	0,006650
522,000000	0,006414
521,000000	0,006721
520,000000	0,006996
519,000000	0,007420
518,000000	0,007092
517,000000	0,007432
516,000000	0,007345
515,000000	0,007613
514,000000	0,007725
513,000000	0,008050
512,000000	0,008130
511,000000	0,008786
510,000000	0,008715
509,000000	0,008931
508,000000	0,009361
507,000000	0,009314
506,000000	0,009309
505,000000	0,010131
504,000000	0,010101
503,000000	0,010168
502,000000	0,010313
501,000000	0,010849
500,000000	0,010783
499,000000	0,011455
498,000000	0,011727
497,000000	0,011801
496,000000	0,012008
495,000000	0,012262
494,000000	0,012257
493,000000	0,013018
492,000000	0,013198
491,000000	0,013492
490,000000	0,014398
489,000000	0,014121
488,000000	0,014478
487,000000	0,014995
486,000000	0,015022
485,000000	0,015313
484,000000	0,015729
483,000000	0,016061
482,000000	0,016180
481,000000	0,017192
480,000000	0,017125
479,000000	0,017637
478,000000	0,017642
477,000000	0,018133
476,000000	0,018271
475,000000	0,018807
474,000000	0,018894
473,000000	0,019594
472,000000	0,020167
471,000000	0,020725
470,000000	0,020808
469,000000	0,021056
468,000000	0,020978
467,000000	0,021663
466,000000	0,021776
465,000000	0,022547
464,000000	0,022765
463,000000	0,023368
462,000000	0,023843
461,000000	0,023557
460,000000	0,023990
459,000000	0,024406
458,000000	0,024746
457,000000	0,024855
456,000000	0,025409
455,000000	0,025846
454,000000	0,026357
453,000000	0,026625
452,000000	0,027125
451,000000	0,027774
450,000000	0,027581
449,000000	0,027798
448,000000	0,028068
447,000000	0,028856
446,000000	0,028737
445,000000	0,028783
444,000000	0,029901
443,000000	0,030186
442,000000	0,030418
441,000000	0,030400
440,000000	0,030604
439,000000	0,031399
438,000000	0,030780
437,000000	0,031880
436,000000	0,032473
435,000000	0,032472
434,000000	0,032869
433,000000	0,033208
432,000000	0,033409
431,000000	0,033456
430,000000	0,034326
429,000000	0,034845
428,000000	0,034861
427,000000	0,035601
426,000000	0,036347
425,000000	0,036800
424,000000	0,036381
423,000000	0,036796
422,000000	0,036916
421,000000	0,037140
420,000000	0,037782
419,000000	0,037735
418,000000	0,038334
417,000000	0,038895
416,000000	0,039396
415,000000	0,039696
414,000000	0,040018
413,000000	0,040335
412,000000	0,040553
411,000000	0,041424
410,000000	0,041699
409,000000	0,042161
408,000000	0,042243
407,000000	0,042876
406,000000	0,043622
405,000000	0,043687
404,000000	0,044639
403,000000	0,045071
402,000000	0,045137
401,000000	0,046065
400,000000	0,046499
399,000000	0,047053
398,000000	0,047912
397,000000	0,048496
396,000000	0,048804
395,000000	0,049649
394,000000	0,050205
393,000000	0,051048
392,000000	0,051783
391,000000	0,052098
390,000000	0,052879
