PE UV       SUBTECH     SPECTRUM    ASCII       PEDS        4.00        
   -1
47.Sample.Raw.asc
20/10/06
14:27:58.00
20/10/06
14:27:58.00
Analyst

390,000000
1
Lambda 25
501s11081509
PerkinElmer UV WinLab 6.0.3.0730 / Lambda25 1.27

480
2
1
0
0
Both on
1
1
1
None
0
0
0
0
 
 
0
0
0
0
0
 
 
 
0
 
0
326
0
 
0
 
 
 
0
0
0
 
0
 
 
 
0
 
 
0
0
0
0
0
 
 
 
 
0
0


#HDR
-1
-1
#GR
nm
A
1.0
0.0
700,000000
-1,000000
311
8
0,019804
0,012978
#DATA
700,000000	0,013500
699,000000	0,013239
698,000000	0,013276
697,000000	0,013313
696,000000	0,013188
695,000000	0,013447
694,000000	0,013105
693,000000	0,013427
692,000000	0,012978
691,000000	0,013355
690,000000	0,013091
689,000000	0,013324
688,000000	0,013363
687,000000	0,013178
686,000000	0,013492
685,000000	0,013129
684,000000	0,013702
683,000000	0,013380
682,000000	0,013103
681,000000	0,013363
680,000000	0,013432
679,000000	0,013522
678,000000	0,013480
677,000000	0,013375
676,000000	0,013604
675,000000	0,013012
674,000000	0,013432
673,000000	0,013628
672,000000	0,013789
671,000000	0,013491
670,000000	0,013909
669,000000	0,013765
668,000000	0,013597
667,000000	0,013798
666,000000	0,013923
665,000000	0,013692
664,000000	0,013637
663,000000	0,013846
662,000000	0,013783
661,000000	0,013967
660,000000	0,014027
659,000000	0,013519
658,000000	0,013732
657,000000	0,013908
656,000000	0,014132
655,000000	0,014006
654,000000	0,013860
653,000000	0,014122
652,000000	0,013759
651,000000	0,014181
650,000000	0,014025
649,000000	0,013863
648,000000	0,013774
647,000000	0,013877
646,000000	0,014396
645,000000	0,014081
644,000000	0,014346
643,000000	0,014112
642,000000	0,014136
641,000000	0,013980
640,000000	0,013923
639,000000	0,014061
638,000000	0,013774
637,000000	0,014082
636,000000	0,013907
635,000000	0,014278
634,000000	0,014058
633,000000	0,014368
632,000000	0,014468
631,000000	0,014198
630,000000	0,014411
629,000000	0,014021
628,000000	0,014823
627,000000	0,014414
626,000000	0,014326
625,000000	0,014695
624,000000	0,014404
623,000000	0,014589
622,000000	0,014386
621,000000	0,014461
620,000000	0,014704
619,000000	0,014692
618,000000	0,014734
617,000000	0,014764
616,000000	0,015005
615,000000	0,014495
614,000000	0,014815
613,000000	0,014689
612,000000	0,014545
611,000000	0,014840
610,000000	0,014367
609,000000	0,014749
608,000000	0,014861
607,000000	0,015155
606,000000	0,014701
605,000000	0,015141
604,000000	0,014835
603,000000	0,015161
602,000000	0,015106
601,000000	0,014865
600,000000	0,014960
599,000000	0,014836
598,000000	0,015027
597,000000	0,014862
596,000000	0,015311
595,000000	0,015064
594,000000	0,014890
593,000000	0,015434
592,000000	0,015350
591,000000	0,015358
590,000000	0,015146
589,000000	0,015131
588,000000	0,014924
587,000000	0,015321
586,000000	0,015447
585,000000	0,015184
584,000000	0,015188
583,000000	0,015433
582,000000	0,015673
581,000000	0,015336
580,000000	0,015579
579,000000	0,015468
578,000000	0,015467
577,000000	0,015427
576,000000	0,015569
575,000000	0,015402
574,000000	0,015434
573,000000	0,015361
572,000000	0,015688
571,000000	0,015442
570,000000	0,015653
569,000000	0,015705
568,000000	0,015599
567,000000	0,015749
566,000000	0,015634
565,000000	0,015610
564,000000	0,015378
563,000000	0,015783
562,000000	0,015382
561,000000	0,015918
560,000000	0,015593
559,000000	0,015854
558,000000	0,015853
557,000000	0,015759
556,000000	0,016001
555,000000	0,015694
554,000000	0,015656
553,000000	0,016041
552,000000	0,015855
551,000000	0,016074
550,000000	0,016000
549,000000	0,016057
548,000000	0,016140
547,000000	0,015958
546,000000	0,016281
545,000000	0,015984
544,000000	0,016232
543,000000	0,016087
542,000000	0,016308
541,000000	0,016154
540,000000	0,016083
539,000000	0,016177
538,000000	0,016219
537,000000	0,016320
536,000000	0,016184
535,000000	0,016363
534,000000	0,016313
533,000000	0,016154
532,000000	0,016464
531,000000	0,016319
530,000000	0,016423
529,000000	0,016151
528,000000	0,016178
527,000000	0,016455
526,000000	0,016396
525,000000	0,016194
524,000000	0,016372
523,000000	0,016437
522,000000	0,016281
521,000000	0,016583
520,000000	0,016377
519,000000	0,016544
518,000000	0,016507
517,000000	0,016704
516,000000	0,016419
515,000000	0,016539
514,000000	0,016668
513,000000	0,016327
512,000000	0,016718
511,000000	0,016713
510,000000	0,016797
509,000000	0,016804
508,000000	0,016772
507,000000	0,016483
506,000000	0,016947
505,000000	0,016908
504,000000	0,016921
503,000000	0,017189
502,000000	0,016765
501,000000	0,016838
500,000000	0,017123
499,000000	0,017006
498,000000	0,017031
497,000000	0,016870
496,000000	0,017156
495,000000	0,017326
494,000000	0,016758
493,000000	0,017038
492,000000	0,016696
491,000000	0,017218
490,000000	0,017658
489,000000	0,017103
488,000000	0,017308
487,000000	0,017248
486,000000	0,017279
485,000000	0,017174
484,000000	0,017329
483,000000	0,017309
482,000000	0,017031
481,000000	0,017528
480,000000	0,017239
479,000000	0,017798
478,000000	0,016918
477,000000	0,017530
476,000000	0,017157
475,000000	0,017320
474,000000	0,017123
473,000000	0,017553
472,000000	0,017412
471,000000	0,017791
470,000000	0,017840
469,000000	0,017473
468,000000	0,017480
467,000000	0,017479
466,000000	0,017445
465,000000	0,017673
464,000000	0,017159
463,000000	0,017447
462,000000	0,017797
461,000000	0,017445
460,000000	0,017792
459,000000	0,017697
458,000000	0,017507
457,000000	0,017596
456,000000	0,018038
455,000000	0,017574
454,000000	0,017605
453,000000	0,017802
452,000000	0,017919
451,000000	0,018034
450,000000	0,018062
449,000000	0,018468
448,000000	0,017861
447,000000	0,018038
446,000000	0,018039
445,000000	0,017283
444,000000	0,018388
443,000000	0,018555
442,000000	0,018428
441,000000	0,018152
440,000000	0,017976
439,000000	0,018550
438,000000	0,017988
437,000000	0,018367
436,000000	0,018529
435,000000	0,018147
434,000000	0,018400
433,000000	0,018755
432,000000	0,018395
431,000000	0,018681
430,000000	0,018559
429,000000	0,017978
428,000000	0,018509
427,000000	0,018497
426,000000	0,018692
425,000000	0,019106
424,000000	0,018413
423,000000	0,018338
422,000000	0,018282
421,000000	0,018523
420,000000	0,018449
419,000000	0,018495
418,000000	0,018646
417,000000	0,018553
416,000000	0,018810
415,000000	0,018879
414,000000	0,018968
413,000000	0,018954
412,000000	0,018571
411,000000	0,018860
410,000000	0,018929
409,000000	0,019057
408,000000	0,018935
407,000000	0,018859
406,000000	0,019149
405,000000	0,018891
404,000000	0,019250
403,000000	0,019104
402,000000	0,019001
401,000000	0,019297
400,000000	0,019161
399,000000	0,019323
398,000000	0,019664
397,000000	0,019504
396,000000	0,019526
395,000000	0,019796
394,000000	0,019362
393,000000	0,019453
392,000000	0,019743
391,000000	0,019649
390,000000	0,019804
