PE UV       SUBTECH     SPECTRUM    ASCII       PEDS        4.00        
   -1
49.Sample.Raw.asc
20/10/06
14:30:01.00
20/10/06
14:30:01.00
Analyst

390,000000
1
Lambda 25
501s11081509
PerkinElmer UV WinLab 6.0.3.0730 / Lambda25 1.27

480
2
1
0
0
Both on
1
1
1
None
0
0
0
0
 
 
0
0
0
0
0
 
 
 
0
 
0
326
0
 
0
 
 
 
0
0
0
 
0
 
 
 
0
 
 
0
0
0
0
0
 
 
 
 
0
0


#HDR
-1
-1
#GR
nm
A
1.0
0.0
700,000000
-1,000000
311
8
1,354461
0,003294
#DATA
700,000000	0,003953
699,000000	0,003707
698,000000	0,003934
697,000000	0,003821
696,000000	0,003657
695,000000	0,003979
694,000000	0,003511
693,000000	0,003769
692,000000	0,003335
691,000000	0,003731
690,000000	0,003678
689,000000	0,003869
688,000000	0,003800
687,000000	0,003645
686,000000	0,003923
685,000000	0,003577
684,000000	0,003913
683,000000	0,003842
682,000000	0,003568
681,000000	0,003909
680,000000	0,003790
679,000000	0,003733
678,000000	0,003854
677,000000	0,003294
676,000000	0,003610
675,000000	0,003494
674,000000	0,004053
673,000000	0,004281
672,000000	0,003961
671,000000	0,003953
670,000000	0,004186
669,000000	0,004094
668,000000	0,003962
667,000000	0,003772
666,000000	0,003741
665,000000	0,003898
664,000000	0,003728
663,000000	0,004161
662,000000	0,003707
661,000000	0,003876
660,000000	0,003959
659,000000	0,003745
658,000000	0,003675
657,000000	0,003888
656,000000	0,003965
655,000000	0,003746
654,000000	0,004034
653,000000	0,004105
652,000000	0,003811
651,000000	0,004304
650,000000	0,003748
649,000000	0,003529
648,000000	0,004046
647,000000	0,003713
646,000000	0,004063
645,000000	0,003836
644,000000	0,004151
643,000000	0,004099
642,000000	0,004101
641,000000	0,004016
640,000000	0,003632
639,000000	0,004209
638,000000	0,003795
637,000000	0,003801
636,000000	0,003922
635,000000	0,003810
634,000000	0,004146
633,000000	0,004208
632,000000	0,004462
631,000000	0,004183
630,000000	0,004245
629,000000	0,004183
628,000000	0,004667
627,000000	0,004435
626,000000	0,004250
625,000000	0,004433
624,000000	0,004180
623,000000	0,004449
622,000000	0,004202
621,000000	0,004410
620,000000	0,004645
619,000000	0,004296
618,000000	0,004871
617,000000	0,004465
616,000000	0,004804
615,000000	0,004347
614,000000	0,004479
613,000000	0,004437
612,000000	0,004404
611,000000	0,004608
610,000000	0,004385
609,000000	0,004672
608,000000	0,004529
607,000000	0,004780
606,000000	0,004688
605,000000	0,004587
604,000000	0,004320
603,000000	0,004687
602,000000	0,004799
601,000000	0,004591
600,000000	0,004640
599,000000	0,004401
598,000000	0,004712
597,000000	0,004729
596,000000	0,004849
595,000000	0,004996
594,000000	0,004600
593,000000	0,004912
592,000000	0,005036
591,000000	0,005021
590,000000	0,004823
589,000000	0,004618
588,000000	0,004755
587,000000	0,004435
586,000000	0,005142
585,000000	0,004704
584,000000	0,004706
583,000000	0,005115
582,000000	0,004748
581,000000	0,004937
580,000000	0,004994
579,000000	0,005244
578,000000	0,004906
577,000000	0,005140
576,000000	0,004963
575,000000	0,005179
574,000000	0,005433
573,000000	0,004905
572,000000	0,005040
571,000000	0,005012
570,000000	0,005368
569,000000	0,005518
568,000000	0,005506
567,000000	0,005676
566,000000	0,005383
565,000000	0,005507
564,000000	0,005310
563,000000	0,005436
562,000000	0,005554
561,000000	0,005413
560,000000	0,005605
559,000000	0,005929
558,000000	0,005675
557,000000	0,005723
556,000000	0,005854
555,000000	0,005817
554,000000	0,005697
553,000000	0,006409
552,000000	0,006010
551,000000	0,006180
550,000000	0,006293
549,000000	0,006111
548,000000	0,006315
547,000000	0,006203
546,000000	0,006512
545,000000	0,006621
544,000000	0,006250
543,000000	0,006588
542,000000	0,006429
541,000000	0,006517
540,000000	0,006465
539,000000	0,006620
538,000000	0,006774
537,000000	0,006914
536,000000	0,006750
535,000000	0,006869
534,000000	0,007179
533,000000	0,006558
532,000000	0,007245
531,000000	0,006847
530,000000	0,007220
529,000000	0,006921
528,000000	0,007042
527,000000	0,007328
526,000000	0,007463
525,000000	0,007383
524,000000	0,007431
523,000000	0,007474
522,000000	0,007380
521,000000	0,007726
520,000000	0,007662
519,000000	0,008069
518,000000	0,007921
517,000000	0,007964
516,000000	0,008029
515,000000	0,008012
514,000000	0,007785
513,000000	0,008136
512,000000	0,008363
511,000000	0,008467
510,000000	0,008393
509,000000	0,008450
508,000000	0,008750
507,000000	0,008711
506,000000	0,008698
505,000000	0,009046
504,000000	0,009158
503,000000	0,008967
502,000000	0,009352
501,000000	0,009156
500,000000	0,009637
499,000000	0,009704
498,000000	0,009869
497,000000	0,009723
496,000000	0,009999
495,000000	0,009835
494,000000	0,010031
493,000000	0,010190
492,000000	0,010067
491,000000	0,010796
490,000000	0,011230
489,000000	0,011052
488,000000	0,010993
487,000000	0,011240
486,000000	0,011767
485,000000	0,011260
484,000000	0,011908
483,000000	0,011960
482,000000	0,012048
481,000000	0,012887
480,000000	0,012897
479,000000	0,013042
478,000000	0,013286
477,000000	0,013422
476,000000	0,013656
475,000000	0,014091
474,000000	0,014312
473,000000	0,014671
472,000000	0,015421
471,000000	0,015794
470,000000	0,015905
469,000000	0,016302
468,000000	0,016020
467,000000	0,016766
466,000000	0,017191
465,000000	0,018273
464,000000	0,018225
463,000000	0,019077
462,000000	0,019512
461,000000	0,019902
460,000000	0,020703
459,000000	0,021502
458,000000	0,022250
457,000000	0,022660
456,000000	0,023880
455,000000	0,024520
454,000000	0,025464
453,000000	0,026257
452,000000	0,027260
451,000000	0,028640
450,000000	0,029732
449,000000	0,031335
448,000000	0,032426
447,000000	0,034385
446,000000	0,035786
445,000000	0,037644
444,000000	0,040130
443,000000	0,042792
442,000000	0,045710
441,000000	0,048286
440,000000	0,051791
439,000000	0,056051
438,000000	0,060920
437,000000	0,066745
436,000000	0,073235
435,000000	0,080933
434,000000	0,089735
433,000000	0,101214
432,000000	0,113092
431,000000	0,128508
430,000000	0,149111
429,000000	0,170834
428,000000	0,196068
427,000000	0,223921
426,000000	0,256126
425,000000	0,288887
424,000000	0,328610
423,000000	0,374046
422,000000	0,424989
421,000000	0,474493
420,000000	0,537157
419,000000	0,602295
418,000000	0,673145
417,000000	0,743420
416,000000	0,813432
415,000000	0,890518
414,000000	0,967346
413,000000	1,037316
412,000000	1,106973
411,000000	1,169074
410,000000	1,222728
409,000000	1,265946
408,000000	1,296394
407,000000	1,318929
406,000000	1,337794
405,000000	1,348794
404,000000	1,351797
403,000000	1,352649
402,000000	1,354461
401,000000	1,352886
400,000000	1,353229
399,000000	1,349280
398,000000	1,347713
397,000000	1,347037
396,000000	1,345060
395,000000	1,337549
394,000000	1,337778
393,000000	1,334338
392,000000	1,329302
391,000000	1,325607
390,000000	1,321591
