PE UV       SUBTECH     SPECTRUM    ASCII       PEDS        4.00        
   -1
50.Sample.Raw.asc
20/10/06
14:31:57.00
20/10/06
14:31:57.00
Analyst

390,000000
1
Lambda 25
501s11081509
PerkinElmer UV WinLab 6.0.3.0730 / Lambda25 1.27

480
2
1
0
0
Both on
1
1
1
None
0
0
0
0
 
 
0
0
0
0
0
 
 
 
0
 
0
326
0
 
0
 
 
 
0
0
0
 
0
 
 
 
0
 
 
0
0
0
0
0
 
 
 
 
0
0


#HDR
-1
-1
#GR
nm
A
1.0
0.0
700,000000
-1,000000
311
8
0,211647
-0,000062
#DATA
700,000000	0,000426
699,000000	0,000234
698,000000	0,000295
697,000000	0,000291
696,000000	0,000016
695,000000	0,000538
694,000000	0,000049
693,000000	0,000534
692,000000	0,000074
691,000000	0,000382
690,000000	0,000185
689,000000	0,000271
688,000000	0,000498
687,000000	0,000173
686,000000	0,000490
685,000000	0,000305
684,000000	0,000367
683,000000	0,000202
682,000000	0,000371
681,000000	0,000297
680,000000	0,000289
679,000000	0,000479
678,000000	0,000500
677,000000	0,000062
676,000000	0,000392
675,000000	-0,000062
674,000000	0,000488
673,000000	0,000541
672,000000	0,000868
671,000000	0,000438
670,000000	0,000798
669,000000	0,000798
668,000000	0,000587
667,000000	0,000401
666,000000	0,000608
665,000000	0,000401
664,000000	0,000286
663,000000	0,000745
662,000000	0,000360
661,000000	0,000601
660,000000	0,000908
659,000000	0,000564
658,000000	0,000664
657,000000	0,000601
656,000000	0,000755
655,000000	0,000801
654,000000	0,000585
653,000000	0,001108
652,000000	0,000564
651,000000	0,000892
650,000000	0,000789
649,000000	0,000652
648,000000	0,000984
647,000000	0,000502
646,000000	0,000976
645,000000	0,000756
644,000000	0,001030
643,000000	0,001051
642,000000	0,001213
641,000000	0,000939
640,000000	0,000885
639,000000	0,001010
638,000000	0,000731
637,000000	0,000873
636,000000	0,000923
635,000000	0,000965
634,000000	0,000782
633,000000	0,000790
632,000000	0,001156
631,000000	0,000986
630,000000	0,001177
629,000000	0,001011
628,000000	0,001364
627,000000	0,001352
626,000000	0,000986
625,000000	0,001419
624,000000	0,000861
623,000000	0,001019
622,000000	0,000845
621,000000	0,001261
620,000000	0,001240
619,000000	0,001457
618,000000	0,001402
617,000000	0,001178
616,000000	0,001227
615,000000	0,001003
614,000000	0,001345
613,000000	0,001311
612,000000	0,001270
611,000000	0,001423
610,000000	0,001083
609,000000	0,001466
608,000000	0,001415
607,000000	0,001290
606,000000	0,001169
605,000000	0,001357
604,000000	0,001082
603,000000	0,001173
602,000000	0,001469
601,000000	0,001148
600,000000	0,001452
599,000000	0,001348
598,000000	0,001111
597,000000	0,001169
596,000000	0,001240
595,000000	0,001644
594,000000	0,001124
593,000000	0,001473
592,000000	0,001790
591,000000	0,001754
590,000000	0,001429
589,000000	0,001155
588,000000	0,001360
587,000000	0,001107
586,000000	0,001509
585,000000	0,001192
584,000000	0,001034
583,000000	0,001476
582,000000	0,001448
581,000000	0,001787
580,000000	0,001431
579,000000	0,001714
578,000000	0,001412
577,000000	0,001663
576,000000	0,001634
575,000000	0,001666
574,000000	0,001675
573,000000	0,001473
572,000000	0,001601
571,000000	0,001530
570,000000	0,001933
569,000000	0,001908
568,000000	0,001819
567,000000	0,002099
566,000000	0,002160
565,000000	0,001999
564,000000	0,001608
563,000000	0,002058
562,000000	0,001715
561,000000	0,002038
560,000000	0,002048
559,000000	0,002282
558,000000	0,002304
557,000000	0,001994
556,000000	0,002432
555,000000	0,002428
554,000000	0,001923
553,000000	0,002660
552,000000	0,002458
551,000000	0,002508
550,000000	0,002424
549,000000	0,002504
548,000000	0,002763
547,000000	0,002635
546,000000	0,002901
545,000000	0,003040
544,000000	0,002914
543,000000	0,003079
542,000000	0,002964
541,000000	0,002948
540,000000	0,002688
539,000000	0,002923
538,000000	0,002867
537,000000	0,003535
536,000000	0,003522
535,000000	0,003393
534,000000	0,003726
533,000000	0,003113
532,000000	0,003805
531,000000	0,003517
530,000000	0,003793
529,000000	0,003551
528,000000	0,003991
527,000000	0,003964
526,000000	0,004184
525,000000	0,003987
524,000000	0,004007
523,000000	0,004433
522,000000	0,004314
521,000000	0,004432
520,000000	0,004462
519,000000	0,004732
518,000000	0,004798
517,000000	0,005030
516,000000	0,005152
515,000000	0,004838
514,000000	0,005189
513,000000	0,005380
512,000000	0,005400
511,000000	0,005776
510,000000	0,005808
509,000000	0,005836
508,000000	0,005989
507,000000	0,006168
506,000000	0,006365
505,000000	0,006701
504,000000	0,006637
503,000000	0,006644
502,000000	0,006774
501,000000	0,006917
500,000000	0,007478
499,000000	0,007631
498,000000	0,007809
497,000000	0,007878
496,000000	0,008106
495,000000	0,008298
494,000000	0,008347
493,000000	0,008515
492,000000	0,008675
491,000000	0,009055
490,000000	0,009807
489,000000	0,009659
488,000000	0,010052
487,000000	0,010048
486,000000	0,010493
485,000000	0,010494
484,000000	0,011072
483,000000	0,011184
482,000000	0,011522
481,000000	0,012391
480,000000	0,012422
479,000000	0,013099
478,000000	0,013079
477,000000	0,013344
476,000000	0,013552
475,000000	0,014057
474,000000	0,014525
473,000000	0,015048
472,000000	0,015543
471,000000	0,016242
470,000000	0,016485
469,000000	0,016979
468,000000	0,017016
467,000000	0,018124
466,000000	0,018436
465,000000	0,019055
464,000000	0,019232
463,000000	0,020545
462,000000	0,020836
461,000000	0,021442
460,000000	0,022259
459,000000	0,023181
458,000000	0,023973
457,000000	0,024453
456,000000	0,025642
455,000000	0,026056
454,000000	0,026870
453,000000	0,027895
452,000000	0,028658
451,000000	0,029902
450,000000	0,030471
449,000000	0,031503
448,000000	0,032258
447,000000	0,033982
446,000000	0,034972
445,000000	0,035443
444,000000	0,037165
443,000000	0,037906
442,000000	0,039640
441,000000	0,040688
440,000000	0,042096
439,000000	0,043553
438,000000	0,045069
437,000000	0,046330
436,000000	0,047734
435,000000	0,048881
434,000000	0,050861
433,000000	0,052587
432,000000	0,054028
431,000000	0,056283
430,000000	0,058499
429,000000	0,060413
428,000000	0,062717
427,000000	0,064854
426,000000	0,066740
425,000000	0,069077
424,000000	0,070945
423,000000	0,072824
422,000000	0,075182
421,000000	0,077438
420,000000	0,080074
419,000000	0,082391
418,000000	0,085375
417,000000	0,088134
416,000000	0,091071
415,000000	0,094136
414,000000	0,097219
413,000000	0,100164
412,000000	0,103196
411,000000	0,106868
410,000000	0,110189
409,000000	0,113978
408,000000	0,117304
407,000000	0,121117
406,000000	0,124825
405,000000	0,128861
404,000000	0,133209
403,000000	0,137850
402,000000	0,142132
401,000000	0,146928
400,000000	0,151788
399,000000	0,157404
398,000000	0,162478
397,000000	0,167598
396,000000	0,173051
395,000000	0,179054
394,000000	0,184750
393,000000	0,191342
392,000000	0,198542
391,000000	0,204860
390,000000	0,211647
