PE UV       SUBTECH     SPECTRUM    ASCII       PEDS        4.00        
   -1
branco.Sample.Raw.asc
20/10/06
14:07:56.00
20/10/06
14:07:56.00
Analyst

390,000000
1
Lambda 25
501s11081509
PerkinElmer UV WinLab 6.0.3.0730 / Lambda25 1.27

480
2
1
0
0
Both on
1
1
1
None
0
0
0
0
 
 
0
0
0
0
0
 
 
 
0
 
0
326
0
 
0
 
 
 
0
0
0
 
0
 
 
 
0
 
 
0
0
0
0
0
 
 
 
 
0
0


#HDR
-1
-1
#GR
nm
A
1.0
0.0
700,000000
-1,000000
311
8
0,002049
-0,000749
#DATA
700,000000	-0,000012
699,000000	-0,000365
698,000000	0,000004
697,000000	-0,000320
696,000000	-0,000226
695,000000	-0,000156
694,000000	-0,000419
693,000000	-0,000057
692,000000	-0,000579
691,000000	-0,000107
690,000000	-0,000222
689,000000	-0,000070
688,000000	-0,000115
687,000000	-0,000313
686,000000	-0,000091
685,000000	-0,000593
684,000000	-0,000132
683,000000	-0,000181
682,000000	-0,000359
681,000000	-0,000153
680,000000	-0,000082
679,000000	-0,000400
678,000000	-0,000177
677,000000	-0,000400
676,000000	-0,000095
675,000000	-0,000562
674,000000	0,000004
673,000000	-0,000050
672,000000	0,000235
671,000000	-0,000372
670,000000	0,000463
669,000000	-0,000099
668,000000	-0,000116
667,000000	-0,000211
666,000000	0,000045
665,000000	-0,000037
664,000000	-0,000509
663,000000	0,000079
662,000000	0,000000
661,000000	-0,000451
660,000000	-0,000252
659,000000	-0,000749
658,000000	-0,000352
657,000000	-0,000538
656,000000	-0,000244
655,000000	-0,000497
654,000000	-0,000191
653,000000	-0,000294
652,000000	-0,000340
651,000000	-0,000402
650,000000	-0,000377
649,000000	-0,000398
648,000000	-0,000240
647,000000	-0,000307
646,000000	0,000008
645,000000	-0,000419
644,000000	-0,000046
643,000000	-0,000191
642,000000	-0,000017
641,000000	-0,000170
640,000000	-0,000270
639,000000	-0,000199
638,000000	-0,000021
637,000000	-0,000046
636,000000	-0,000120
635,000000	0,000116
634,000000	-0,000365
633,000000	0,000050
632,000000	0,000216
631,000000	-0,000233
630,000000	0,000017
629,000000	-0,000133
628,000000	0,000366
627,000000	-0,000112
626,000000	0,000100
625,000000	-0,000029
624,000000	-0,000187
623,000000	-0,000121
622,000000	-0,000424
621,000000	0,000137
620,000000	-0,000004
619,000000	0,000183
618,000000	0,000025
617,000000	-0,000050
616,000000	0,000025
615,000000	-0,000349
614,000000	-0,000071
613,000000	0,000150
612,000000	0,000058
611,000000	0,000337
610,000000	-0,000191
609,000000	0,000145
608,000000	0,000033
607,000000	0,000407
606,000000	0,000004
605,000000	0,000270
604,000000	-0,000029
603,000000	0,000137
602,000000	0,000096
601,000000	-0,000025
600,000000	0,000170
599,000000	-0,000012
598,000000	0,000029
597,000000	-0,000170
596,000000	-0,000004
595,000000	0,000253
594,000000	-0,000179
593,000000	0,000316
592,000000	0,000091
591,000000	0,000329
590,000000	-0,000058
589,000000	-0,000216
588,000000	-0,000067
587,000000	0,000008
586,000000	0,000013
585,000000	-0,000063
584,000000	-0,000038
583,000000	0,000126
582,000000	0,000063
581,000000	-0,000092
580,000000	-0,000109
579,000000	-0,000017
578,000000	-0,000177
577,000000	0,000029
576,000000	0,000312
575,000000	0,000262
574,000000	0,000270
573,000000	0,000304
572,000000	0,000165
571,000000	-0,000106
570,000000	0,000152
569,000000	0,000195
568,000000	0,000013
567,000000	0,000148
566,000000	-0,000080
565,000000	-0,000013
564,000000	0,000148
563,000000	0,000275
562,000000	0,000076
561,000000	0,000169
560,000000	-0,000301
559,000000	0,000220
558,000000	0,000135
557,000000	-0,000093
556,000000	0,000250
555,000000	0,000076
554,000000	-0,000064
553,000000	0,000436
552,000000	0,000360
551,000000	0,000364
550,000000	-0,000030
549,000000	0,000326
548,000000	0,000135
547,000000	0,000072
546,000000	0,000457
545,000000	0,000452
544,000000	0,000414
543,000000	0,000457
542,000000	0,000436
541,000000	0,000283
540,000000	0,000258
539,000000	0,000317
538,000000	0,000123
537,000000	0,000605
536,000000	0,000182
535,000000	0,000448
534,000000	0,000423
533,000000	0,000245
532,000000	0,000461
531,000000	0,000385
530,000000	0,000566
529,000000	0,000313
528,000000	0,000423
527,000000	0,000621
526,000000	0,000473
525,000000	0,000512
524,000000	0,000355
523,000000	0,000385
522,000000	0,000270
521,000000	0,000461
520,000000	0,000389
519,000000	0,000460
518,000000	0,000401
517,000000	0,000422
516,000000	0,000634
515,000000	0,000304
514,000000	0,000401
513,000000	0,000266
512,000000	0,000409
511,000000	0,000831
510,000000	0,000447
509,000000	0,000789
508,000000	0,000654
507,000000	0,000713
506,000000	0,000325
505,000000	0,000919
504,000000	0,000995
503,000000	0,000569
502,000000	0,000375
501,000000	0,000552
500,000000	0,000826
499,000000	0,000518
498,000000	0,000977
497,000000	0,000598
496,000000	0,000909
495,000000	0,000732
494,000000	0,000442
493,000000	0,000783
492,000000	0,000404
491,000000	0,000850
490,000000	0,001038
489,000000	0,000912
488,000000	0,000941
487,000000	0,000710
486,000000	0,000929
485,000000	0,000614
484,000000	0,001038
483,000000	0,000765
482,000000	0,000685
481,000000	0,001205
480,000000	0,001109
479,000000	0,001188
478,000000	0,000680
477,000000	0,001075
476,000000	0,000517
475,000000	0,000903
474,000000	0,000769
473,000000	0,000794
472,000000	0,001029
471,000000	0,001176
470,000000	0,001005
469,000000	0,000694
468,000000	0,000892
467,000000	0,000880
466,000000	0,001057
465,000000	0,001192
464,000000	0,000864
463,000000	0,001244
462,000000	0,001126
461,000000	0,000887
460,000000	0,000845
459,000000	0,001179
458,000000	0,001108
457,000000	0,000960
456,000000	0,001218
455,000000	0,000990
454,000000	0,001147
453,000000	0,000914
452,000000	0,001092
451,000000	0,001643
450,000000	0,001258
449,000000	0,001161
448,000000	0,000967
447,000000	0,001081
446,000000	0,001078
445,000000	0,000913
444,000000	0,001231
443,000000	0,001249
442,000000	0,001229
441,000000	0,001196
440,000000	0,001499
439,000000	0,001188
438,000000	0,001083
437,000000	0,001083
436,000000	0,001553
435,000000	0,001195
434,000000	0,001046
433,000000	0,001439
432,000000	0,001205
431,000000	0,001466
430,000000	0,001718
429,000000	0,000859
428,000000	0,001308
427,000000	0,001355
426,000000	0,001381
425,000000	0,001603
424,000000	0,001382
423,000000	0,001330
422,000000	0,001502
421,000000	0,001292
420,000000	0,001467
419,000000	0,001390
418,000000	0,001377
417,000000	0,001535
416,000000	0,001826
415,000000	0,001569
414,000000	0,001723
413,000000	0,001316
412,000000	0,001817
411,000000	0,001624
410,000000	0,001760
409,000000	0,001811
408,000000	0,001414
407,000000	0,001700
406,000000	0,001622
405,000000	0,001507
404,000000	0,001579
403,000000	0,001903
402,000000	0,001455
401,000000	0,001647
400,000000	0,001655
399,000000	0,001600
398,000000	0,001786
397,000000	0,001923
396,000000	0,001449
395,000000	0,001964
394,000000	0,001576
393,000000	0,001806
392,000000	0,001571
391,000000	0,002049
390,000000	0,001942
