PE UV       SUBTECH     SPECTRUM    ASCII       PEDS        4.00        
   -1
100% or 0 Absorbance Baseline.Correction.Raw.asc
20/09/01
14:26:44.00
20/09/01
14:26:44.00
Analyst

390,000000
1
Lambda 25
501s11081509
PerkinElmer UV WinLab 6.0.3.0730 / Lambda25 1.27

480
0
1
0
0
Both on
0
1
1
None
0
0
0
0
 
 
0
0
0
0
0
 
 
 
0
 
0
326
0
 
0
 
 
 
0
0
0
 
0
 
 
 
0
 
 
0
0
0
0
0
 
 
 
 
0
0


#HDR
-1
-1
#GR
nm
A
1.0
0.0
700,000000
-1,000000
311
8
-0,008413
-0,026157
#DATA
700,000000	-0,026157
699,000000	-0,025965
698,000000	-0,025994
697,000000	-0,025781
696,000000	-0,025613
695,000000	-0,025445
694,000000	-0,025425
693,000000	-0,025359
692,000000	-0,025097
691,000000	-0,025007
690,000000	-0,024888
689,000000	-0,024892
688,000000	-0,024674
687,000000	-0,024543
686,000000	-0,024580
685,000000	-0,024404
684,000000	-0,024252
683,000000	-0,024642
682,000000	-0,024469
681,000000	-0,024412
680,000000	-0,024284
679,000000	-0,024223
678,000000	-0,024050
677,000000	-0,024190
676,000000	-0,023865
675,000000	-0,023660
674,000000	-0,023639
673,000000	-0,023713
672,000000	-0,023466
671,000000	-0,023397
670,000000	-0,023495
669,000000	-0,023388
668,000000	-0,023359
667,000000	-0,023162
666,000000	-0,022989
665,000000	-0,022861
664,000000	-0,022544
663,000000	-0,022729
662,000000	-0,022569
661,000000	-0,022230
660,000000	-0,022367
659,000000	-0,022387
658,000000	-0,022362
657,000000	-0,022152
656,000000	-0,022185
655,000000	-0,022177
654,000000	-0,021908
653,000000	-0,021900
652,000000	-0,021760
651,000000	-0,021756
650,000000	-0,021677
649,000000	-0,021615
648,000000	-0,021586
647,000000	-0,021590
646,000000	-0,021408
645,000000	-0,021255
644,000000	-0,021156
643,000000	-0,021119
642,000000	-0,021247
641,000000	-0,021326
640,000000	-0,021189
639,000000	-0,021367
638,000000	-0,021144
637,000000	-0,020937
636,000000	-0,020908
635,000000	-0,020941
634,000000	-0,020883
633,000000	-0,020817
632,000000	-0,020813
631,000000	-0,020900
630,000000	-0,020846
629,000000	-0,020904
628,000000	-0,020705
627,000000	-0,020825
626,000000	-0,020991
625,000000	-0,020875
624,000000	-0,020887
623,000000	-0,020660
622,000000	-0,020560
621,000000	-0,020742
620,000000	-0,020771
619,000000	-0,020718
618,000000	-0,020577
617,000000	-0,020577
616,000000	-0,020444
615,000000	-0,020784
614,000000	-0,020647
613,000000	-0,020519
612,000000	-0,020440
611,000000	-0,020452
610,000000	-0,020382
609,000000	-0,020448
608,000000	-0,020498
607,000000	-0,020610
606,000000	-0,020718
605,000000	-0,020775
604,000000	-0,020722
603,000000	-0,020705
602,000000	-0,020751
601,000000	-0,020705
600,000000	-0,020602
599,000000	-0,020784
598,000000	-0,020908
597,000000	-0,020809
596,000000	-0,020891
595,000000	-0,020912
594,000000	-0,020804
593,000000	-0,020672
592,000000	-0,020593
591,000000	-0,020452
590,000000	-0,019963
589,000000	-0,019818
588,000000	-0,019640
587,000000	-0,019104
586,000000	-0,018734
585,000000	-0,018272
584,000000	-0,017876
583,000000	-0,017526
582,000000	-0,016983
581,000000	-0,016519
580,000000	-0,016038
579,000000	-0,015490
578,000000	-0,015238
577,000000	-0,014915
576,000000	-0,014626
575,000000	-0,014016
574,000000	-0,013810
573,000000	-0,013448
572,000000	-0,013503
571,000000	-0,013099
570,000000	-0,012917
569,000000	-0,012997
568,000000	-0,012879
567,000000	-0,013077
566,000000	-0,013014
565,000000	-0,012900
564,000000	-0,012449
563,000000	-0,012816
562,000000	-0,012854
561,000000	-0,012732
560,000000	-0,012719
559,000000	-0,012614
558,000000	-0,012837
557,000000	-0,012766
556,000000	-0,012732
555,000000	-0,012470
554,000000	-0,012487
553,000000	-0,012458
552,000000	-0,012534
551,000000	-0,012635
550,000000	-0,012778
549,000000	-0,012964
548,000000	-0,012799
547,000000	-0,012943
546,000000	-0,013086
545,000000	-0,012905
544,000000	-0,013006
543,000000	-0,013027
542,000000	-0,013174
541,000000	-0,012917
540,000000	-0,013056
539,000000	-0,013132
538,000000	-0,013322
537,000000	-0,013250
536,000000	-0,013486
535,000000	-0,013288
534,000000	-0,013347
533,000000	-0,013309
532,000000	-0,013516
531,000000	-0,013562
530,000000	-0,013503
529,000000	-0,013486
528,000000	-0,013528
527,000000	-0,013511
526,000000	-0,013351
525,000000	-0,013313
524,000000	-0,013579
523,000000	-0,013334
522,000000	-0,013549
521,000000	-0,013549
520,000000	-0,013629
519,000000	-0,013667
518,000000	-0,013882
517,000000	-0,013995
516,000000	-0,013827
515,000000	-0,013890
514,000000	-0,013894
513,000000	-0,013957
512,000000	-0,014142
511,000000	-0,014168
510,000000	-0,014256
509,000000	-0,014319
508,000000	-0,014428
507,000000	-0,014567
506,000000	-0,014474
505,000000	-0,014516
504,000000	-0,014735
503,000000	-0,014621
502,000000	-0,014827
501,000000	-0,014961
500,000000	-0,015263
499,000000	-0,015255
498,000000	-0,015456
497,000000	-0,015397
496,000000	-0,015649
495,000000	-0,015561
494,000000	-0,015682
493,000000	-0,015599
492,000000	-0,015879
491,000000	-0,015976
490,000000	-0,015988
489,000000	-0,016264
488,000000	-0,016394
487,000000	-0,016394
486,000000	-0,016444
485,000000	-0,016327
484,000000	-0,016427
483,000000	-0,016565
482,000000	-0,016707
481,000000	-0,016691
480,000000	-0,016900
479,000000	-0,017038
478,000000	-0,016967
477,000000	-0,016774
476,000000	-0,016478
475,000000	-0,016896
474,000000	-0,016636
473,000000	-0,016624
472,000000	-0,016377
471,000000	-0,016486
470,000000	-0,016281
469,000000	-0,016176
468,000000	-0,015875
467,000000	-0,015674
466,000000	-0,015573
465,000000	-0,015360
464,000000	-0,015188
463,000000	-0,014957
462,000000	-0,014634
461,000000	-0,014739
460,000000	-0,014726
459,000000	-0,014684
458,000000	-0,014323
457,000000	-0,014121
456,000000	-0,014105
455,000000	-0,013739
454,000000	-0,013785
453,000000	-0,013747
452,000000	-0,013524
451,000000	-0,013730
450,000000	-0,013511
449,000000	-0,013570
448,000000	-0,013461
447,000000	-0,012938
446,000000	-0,013048
445,000000	-0,012858
444,000000	-0,012517
443,000000	-0,012609
442,000000	-0,012162
441,000000	-0,011892
440,000000	-0,011714
439,000000	-0,011448
438,000000	-0,011207
437,000000	-0,011058
436,000000	-0,010902
435,000000	-0,010639
434,000000	-0,010482
433,000000	-0,010529
432,000000	-0,010563
431,000000	-0,010516
430,000000	-0,010588
429,000000	-0,010487
428,000000	-0,010135
427,000000	-0,010431
426,000000	-0,010287
425,000000	-0,010151
424,000000	-0,010567
423,000000	-0,010262
422,000000	-0,010207
421,000000	-0,008413
420,000000	-0,008656
419,000000	-0,008566
418,000000	-0,008549
417,000000	-0,008915
416,000000	-0,008753
415,000000	-0,008898
414,000000	-0,008766
413,000000	-0,008890
412,000000	-0,009085
411,000000	-0,009056
410,000000	-0,009255
409,000000	-0,009336
408,000000	-0,009396
407,000000	-0,009510
406,000000	-0,009621
405,000000	-0,009629
404,000000	-0,009727
403,000000	-0,009651
402,000000	-0,010003
401,000000	-0,010185
400,000000	-0,009944
399,000000	-0,010088
398,000000	-0,010372
397,000000	-0,010325
396,000000	-0,010440
395,000000	-0,010707
394,000000	-0,010970
393,000000	-0,010965
392,000000	-0,010986
391,000000	-0,011169
390,000000	-0,011389
