PE UV       SUBTECH     SPECTRUM    ASCII       PEDS        4.00        
   -1
36.Sample.Raw.asc
20/09/01
14:46:44.00
20/09/01
14:46:44.00
Analyst

390,000000
1
Lambda 25
501s11081509
PerkinElmer UV WinLab 6.0.3.0730 / Lambda25 1.27

480
2
1
0
0
Both on
1
1
1
None
0
0
0
0
 
 
0
0
0
0
0
 
 
 
0
 
0
326
0
 
0
 
 
 
0
0
0
 
0
 
 
 
0
 
 
0
0
0
0
0
 
 
 
 
0
0


#HDR
-1
-1
#GR
nm
A
1.0
0.0
700,000000
-1,000000
311
8
0,009201
0,003631
#DATA
700,000000	0,003787
699,000000	0,003743
698,000000	0,003809
697,000000	0,003769
696,000000	0,003812
695,000000	0,003896
694,000000	0,003925
693,000000	0,003947
692,000000	0,003659
691,000000	0,003817
690,000000	0,003794
689,000000	0,003876
688,000000	0,003812
687,000000	0,003792
686,000000	0,004036
685,000000	0,003914
684,000000	0,003982
683,000000	0,004624
682,000000	0,004610
681,000000	0,004453
680,000000	0,004753
679,000000	0,004475
678,000000	0,004598
677,000000	0,004604
676,000000	0,004645
675,000000	0,004344
674,000000	0,004552
673,000000	0,004572
672,000000	0,004404
671,000000	0,004438
670,000000	0,004890
669,000000	0,004575
668,000000	0,004709
667,000000	0,004653
666,000000	0,004659
665,000000	0,004469
664,000000	0,004330
663,000000	0,004287
662,000000	0,004426
661,000000	0,004263
660,000000	0,004370
659,000000	0,004699
658,000000	0,004716
657,000000	0,004568
656,000000	0,004542
655,000000	0,004580
654,000000	0,004287
653,000000	0,004258
652,000000	0,004305
651,000000	0,004422
650,000000	0,004155
649,000000	0,004473
648,000000	0,004361
647,000000	0,004265
646,000000	0,004383
645,000000	0,004306
644,000000	0,004085
643,000000	0,003998
642,000000	0,004193
641,000000	0,004226
640,000000	0,004156
639,000000	0,004442
638,000000	0,004148
637,000000	0,004209
636,000000	0,004159
635,000000	0,004108
634,000000	0,003937
633,000000	0,004118
632,000000	0,004126
631,000000	0,004129
630,000000	0,004163
629,000000	0,004359
628,000000	0,004081
627,000000	0,004373
626,000000	0,004613
625,000000	0,004435
624,000000	0,004355
623,000000	0,004015
622,000000	0,003903
621,000000	0,004177
620,000000	0,004264
619,000000	0,004085
618,000000	0,004199
617,000000	0,004187
616,000000	0,004038
615,000000	0,004310
614,000000	0,004207
613,000000	0,004154
612,000000	0,004151
611,000000	0,004063
610,000000	0,003963
609,000000	0,004096
608,000000	0,004112
607,000000	0,004212
606,000000	0,004382
605,000000	0,004398
604,000000	0,004089
603,000000	0,004048
602,000000	0,004215
601,000000	0,003968
600,000000	0,003631
599,000000	0,004164
598,000000	0,004280
597,000000	0,004348
596,000000	0,004213
595,000000	0,004376
594,000000	0,004201
593,000000	0,004194
592,000000	0,003915
591,000000	0,004021
590,000000	0,003979
589,000000	0,004069
588,000000	0,004242
587,000000	0,004096
586,000000	0,004259
585,000000	0,004033
584,000000	0,004087
583,000000	0,004292
582,000000	0,004146
581,000000	0,004290
580,000000	0,004083
579,000000	0,003991
578,000000	0,004489
577,000000	0,004560
576,000000	0,004720
575,000000	0,004242
574,000000	0,004525
573,000000	0,004248
572,000000	0,004562
571,000000	0,004324
570,000000	0,004321
569,000000	0,004521
568,000000	0,004607
567,000000	0,004716
566,000000	0,004776
565,000000	0,004760
564,000000	0,004211
563,000000	0,004437
562,000000	0,004527
561,000000	0,004400
560,000000	0,004511
559,000000	0,004359
558,000000	0,004454
557,000000	0,004762
556,000000	0,004115
555,000000	0,004241
554,000000	0,004240
553,000000	0,004185
552,000000	0,004193
551,000000	0,004252
550,000000	0,004455
549,000000	0,004491
548,000000	0,004446
547,000000	0,004394
546,000000	0,004481
545,000000	0,003917
544,000000	0,004265
543,000000	0,004176
542,000000	0,004336
541,000000	0,004126
540,000000	0,004294
539,000000	0,004324
538,000000	0,004585
537,000000	0,004399
536,000000	0,004418
535,000000	0,004173
534,000000	0,004432
533,000000	0,004275
532,000000	0,004294
531,000000	0,004421
530,000000	0,004537
529,000000	0,004460
528,000000	0,004588
527,000000	0,004447
526,000000	0,004253
525,000000	0,004075
524,000000	0,004447
523,000000	0,004092
522,000000	0,004183
521,000000	0,004319
520,000000	0,004404
519,000000	0,004373
518,000000	0,004503
517,000000	0,004549
516,000000	0,004346
515,000000	0,004235
514,000000	0,004414
513,000000	0,004290
512,000000	0,004543
511,000000	0,004449
510,000000	0,004563
509,000000	0,004473
508,000000	0,004718
507,000000	0,004857
506,000000	0,004722
505,000000	0,004581
504,000000	0,004812
503,000000	0,004410
502,000000	0,004493
501,000000	0,004488
500,000000	0,004811
499,000000	0,004675
498,000000	0,005016
497,000000	0,004597
496,000000	0,004785
495,000000	0,004812
494,000000	0,004658
493,000000	0,004773
492,000000	0,004745
491,000000	0,004879
490,000000	0,004811
489,000000	0,005147
488,000000	0,005069
487,000000	0,005018
486,000000	0,005009
485,000000	0,005044
484,000000	0,005056
483,000000	0,004940
482,000000	0,005052
481,000000	0,005196
480,000000	0,005240
479,000000	0,005463
478,000000	0,005295
477,000000	0,005348
476,000000	0,005026
475,000000	0,005668
474,000000	0,005358
473,000000	0,005358
472,000000	0,005204
471,000000	0,005648
470,000000	0,005663
469,000000	0,005902
468,000000	0,005864
467,000000	0,005722
466,000000	0,005571
465,000000	0,005641
464,000000	0,005711
463,000000	0,005638
462,000000	0,005438
461,000000	0,005841
460,000000	0,006237
459,000000	0,006297
458,000000	0,005953
457,000000	0,006280
456,000000	0,006370
455,000000	0,006072
454,000000	0,006297
453,000000	0,006413
452,000000	0,005712
451,000000	0,006546
450,000000	0,006237
449,000000	0,006711
448,000000	0,006661
447,000000	0,006943
446,000000	0,006937
445,000000	0,006966
444,000000	0,006719
443,000000	0,007352
442,000000	0,007239
441,000000	0,006960
440,000000	0,007629
439,000000	0,007337
438,000000	0,007630
437,000000	0,007848
436,000000	0,007829
435,000000	0,007636
434,000000	0,007858
433,000000	0,007996
432,000000	0,008280
431,000000	0,008022
430,000000	0,008971
429,000000	0,008416
428,000000	0,008639
427,000000	0,008481
426,000000	0,008878
425,000000	0,008461
424,000000	0,008959
423,000000	0,008883
422,000000	0,008720
421,000000	0,007497
420,000000	0,007727
419,000000	0,007603
418,000000	0,007807
417,000000	0,008073
416,000000	0,007847
415,000000	0,008074
414,000000	0,007890
413,000000	0,008091
412,000000	0,008092
411,000000	0,007980
410,000000	0,008167
409,000000	0,008308
408,000000	0,008251
407,000000	0,008296
406,000000	0,008523
405,000000	0,008320
404,000000	0,008417
403,000000	0,008116
402,000000	0,008512
401,000000	0,008798
400,000000	0,008340
399,000000	0,008770
398,000000	0,008768
397,000000	0,008505
396,000000	0,008840
395,000000	0,008658
394,000000	0,008778
393,000000	0,008951
392,000000	0,008756
391,000000	0,008782
390,000000	0,009201
