PE UV       SUBTECH     SPECTRUM    ASCII       PEDS        4.00        
   -1
45.Sample.Raw.asc
20/09/01
14:53:39.00
20/09/01
14:53:39.00
Analyst

390,000000
1
Lambda 25
501s11081509
PerkinElmer UV WinLab 6.0.3.0730 / Lambda25 1.27

480
2
1
0
0
Both on
1
1
1
None
0
0
0
0
 
 
0
0
0
0
0
 
 
 
0
 
0
326
0
 
0
 
 
 
0
0
0
 
0
 
 
 
0
 
 
0
0
0
0
0
 
 
 
 
0
0


#HDR
-1
-1
#GR
nm
A
1.0
0.0
700,000000
-1,000000
311
8
0,012776
0,000746
#DATA
700,000000	0,001003
699,000000	0,000860
698,000000	0,001024
697,000000	0,000922
696,000000	0,000746
695,000000	0,000775
694,000000	0,000935
693,000000	0,000972
692,000000	0,000812
691,000000	0,001055
690,000000	0,000887
689,000000	0,000899
688,000000	0,000830
687,000000	0,000957
686,000000	0,001044
685,000000	0,001007
684,000000	0,000781
683,000000	0,001574
682,000000	0,001682
681,000000	0,001579
680,000000	0,001741
679,000000	0,001716
678,000000	0,001560
677,000000	0,001576
676,000000	0,001726
675,000000	0,001549
674,000000	0,001702
673,000000	0,001999
672,000000	0,001612
671,000000	0,001645
670,000000	0,001955
669,000000	0,001827
668,000000	0,001951
667,000000	0,001749
666,000000	0,001721
665,000000	0,001548
664,000000	0,001553
663,000000	0,001763
662,000000	0,001541
661,000000	0,001372
660,000000	0,001632
659,000000	0,001628
658,000000	0,001657
657,000000	0,001542
656,000000	0,001600
655,000000	0,001753
654,000000	0,001352
653,000000	0,001394
652,000000	0,001602
651,000000	0,001655
650,000000	0,001349
649,000000	0,001374
648,000000	0,001503
647,000000	0,001706
646,000000	0,001395
645,000000	0,001383
644,000000	0,001247
643,000000	0,001479
642,000000	0,001595
641,000000	0,001483
640,000000	0,001371
639,000000	0,001503
638,000000	0,001268
637,000000	0,001247
636,000000	0,001086
635,000000	0,001335
634,000000	0,001405
633,000000	0,001422
632,000000	0,001422
631,000000	0,001484
630,000000	0,001460
629,000000	0,001530
628,000000	0,001340
627,000000	0,001480
626,000000	0,001621
625,000000	0,001447
624,000000	0,001493
623,000000	0,001410
622,000000	0,001452
621,000000	0,001555
620,000000	0,001447
619,000000	0,001472
618,000000	0,001506
617,000000	0,001460
616,000000	0,001340
615,000000	0,001900
614,000000	0,001893
613,000000	0,001548
612,000000	0,001673
611,000000	0,001336
610,000000	0,001382
609,000000	0,001577
608,000000	0,001573
607,000000	0,001564
606,000000	0,001564
605,000000	0,001609
604,000000	0,001738
603,000000	0,001539
602,000000	0,001555
601,000000	0,001502
600,000000	0,001402
599,000000	0,001850
598,000000	0,001679
597,000000	0,001709
596,000000	0,001655
595,000000	0,001704
594,000000	0,001867
593,000000	0,001951
592,000000	0,001826
591,000000	0,001719
590,000000	0,001492
589,000000	0,001830
588,000000	0,001797
587,000000	0,001599
586,000000	0,001571
585,000000	0,001485
584,000000	0,001691
583,000000	0,002011
582,000000	0,001871
581,000000	0,001999
580,000000	0,002068
579,000000	0,001709
578,000000	0,002043
577,000000	0,001960
576,000000	0,002012
575,000000	0,001918
574,000000	0,002180
573,000000	0,001713
572,000000	0,002246
571,000000	0,002226
570,000000	0,002113
569,000000	0,002070
568,000000	0,002312
567,000000	0,002095
566,000000	0,002337
565,000000	0,002312
564,000000	0,001920
563,000000	0,002571
562,000000	0,002342
561,000000	0,002546
560,000000	0,002432
559,000000	0,001941
558,000000	0,002359
557,000000	0,002186
556,000000	0,002394
555,000000	0,002128
554,000000	0,002056
553,000000	0,002259
552,000000	0,002221
551,000000	0,002203
550,000000	0,002338
549,000000	0,002460
548,000000	0,002364
547,000000	0,002469
546,000000	0,002299
545,000000	0,002122
544,000000	0,002405
543,000000	0,002396
542,000000	0,002395
541,000000	0,002282
540,000000	0,002506
539,000000	0,002519
538,000000	0,002581
537,000000	0,002590
536,000000	0,002987
535,000000	0,002789
534,000000	0,002755
533,000000	0,002869
532,000000	0,002787
531,000000	0,002969
530,000000	0,002936
529,000000	0,002851
528,000000	0,002991
527,000000	0,002987
526,000000	0,002788
525,000000	0,002882
524,000000	0,003270
523,000000	0,002882
522,000000	0,003084
521,000000	0,003177
520,000000	0,003066
519,000000	0,003223
518,000000	0,003370
517,000000	0,003691
516,000000	0,003616
515,000000	0,003433
514,000000	0,003637
513,000000	0,003653
512,000000	0,003495
511,000000	0,003609
510,000000	0,003990
509,000000	0,003820
508,000000	0,003717
507,000000	0,004140
506,000000	0,003988
505,000000	0,003992
504,000000	0,004036
503,000000	0,003936
502,000000	0,004023
501,000000	0,003971
500,000000	0,004141
499,000000	0,004294
498,000000	0,004262
497,000000	0,004233
496,000000	0,004531
495,000000	0,004244
494,000000	0,004260
493,000000	0,004400
492,000000	0,004499
491,000000	0,004595
490,000000	0,004447
489,000000	0,004647
488,000000	0,004849
487,000000	0,004621
486,000000	0,004810
485,000000	0,004769
484,000000	0,004701
483,000000	0,004729
482,000000	0,004752
481,000000	0,004761
480,000000	0,005025
479,000000	0,005167
478,000000	0,005104
477,000000	0,004984
476,000000	0,004573
475,000000	0,005300
474,000000	0,004998
473,000000	0,005210
472,000000	0,005014
471,000000	0,005669
470,000000	0,005426
469,000000	0,005342
468,000000	0,005270
467,000000	0,005277
466,000000	0,005638
465,000000	0,005510
464,000000	0,005635
463,000000	0,005523
462,000000	0,005468
461,000000	0,005577
460,000000	0,005947
459,000000	0,005965
458,000000	0,005770
457,000000	0,005909
456,000000	0,006062
455,000000	0,005790
454,000000	0,006050
453,000000	0,005978
452,000000	0,005652
451,000000	0,006251
450,000000	0,006037
449,000000	0,006339
448,000000	0,006597
447,000000	0,006267
446,000000	0,006312
445,000000	0,006337
444,000000	0,006500
443,000000	0,006923
442,000000	0,006535
441,000000	0,007089
440,000000	0,007066
439,000000	0,007023
438,000000	0,006735
437,000000	0,007193
436,000000	0,007260
435,000000	0,007019
434,000000	0,007186
433,000000	0,007064
432,000000	0,007525
431,000000	0,007422
430,000000	0,007844
429,000000	0,007841
428,000000	0,007321
427,000000	0,008170
426,000000	0,007966
425,000000	0,007700
424,000000	0,008449
423,000000	0,008303
422,000000	0,008477
421,000000	0,007069
420,000000	0,007108
419,000000	0,007096
418,000000	0,007214
417,000000	0,007636
416,000000	0,007621
415,000000	0,007723
414,000000	0,007522
413,000000	0,007706
412,000000	0,008044
411,000000	0,007984
410,000000	0,008500
409,000000	0,008464
408,000000	0,008849
407,000000	0,009120
406,000000	0,009234
405,000000	0,009399
404,000000	0,009445
403,000000	0,009698
402,000000	0,010046
401,000000	0,010455
400,000000	0,010004
399,000000	0,010462
398,000000	0,010828
397,000000	0,010929
396,000000	0,011035
395,000000	0,011755
394,000000	0,012152
393,000000	0,012179
392,000000	0,012156
391,000000	0,012508
390,000000	0,012776
