PE UV       SUBTECH     SPECTRUM    ASCII       PEDS        4.00        
   -1
46.Sample.Raw.asc
20/09/01
14:56:00.00
20/09/01
14:56:00.00
Analyst

390,000000
1
Lambda 25
501s11081509
PerkinElmer UV WinLab 6.0.3.0730 / Lambda25 1.27

480
2
1
0
0
Both on
1
1
1
None
0
0
0
0
 
 
0
0
0
0
0
 
 
 
0
 
0
326
0
 
0
 
 
 
0
0
0
 
0
 
 
 
0
 
 
0
0
0
0
0
 
 
 
 
0
0


#HDR
-1
-1
#GR
nm
A
1.0
0.0
700,000000
-1,000000
311
8
0,053001
0,001392
#DATA
700,000000	0,001401
699,000000	0,001414
698,000000	0,001533
697,000000	0,001468
696,000000	0,001460
695,000000	0,001440
694,000000	0,001604
693,000000	0,001629
692,000000	0,001581
691,000000	0,001598
690,000000	0,001392
689,000000	0,001450
688,000000	0,001517
687,000000	0,001443
686,000000	0,001863
685,000000	0,001806
684,000000	0,001774
683,000000	0,002432
682,000000	0,002429
681,000000	0,002301
680,000000	0,002512
679,000000	0,002504
678,000000	0,002456
677,000000	0,002674
676,000000	0,002490
675,000000	0,002408
674,000000	0,002396
673,000000	0,002685
672,000000	0,002389
671,000000	0,002306
670,000000	0,002753
669,000000	0,002551
668,000000	0,002721
667,000000	0,002589
666,000000	0,002702
665,000000	0,002496
664,000000	0,002344
663,000000	0,002592
662,000000	0,002427
661,000000	0,002176
660,000000	0,002598
659,000000	0,002436
658,000000	0,002640
657,000000	0,002350
656,000000	0,002662
655,000000	0,002637
654,000000	0,002427
653,000000	0,002535
652,000000	0,002249
651,000000	0,002361
650,000000	0,002407
649,000000	0,002615
648,000000	0,002495
647,000000	0,002499
646,000000	0,002350
645,000000	0,002480
644,000000	0,002356
643,000000	0,002373
642,000000	0,002355
641,000000	0,002467
640,000000	0,002281
639,000000	0,002600
638,000000	0,002431
637,000000	0,002403
636,000000	0,002453
635,000000	0,002449
634,000000	0,002615
633,000000	0,002412
632,000000	0,002474
631,000000	0,002474
630,000000	0,002557
629,000000	0,002911
628,000000	0,002537
627,000000	0,002749
626,000000	0,003136
625,000000	0,002761
624,000000	0,002978
623,000000	0,002608
622,000000	0,002705
621,000000	0,002837
620,000000	0,002904
619,000000	0,003058
618,000000	0,002926
617,000000	0,003184
616,000000	0,002981
615,000000	0,003233
614,000000	0,003171
613,000000	0,003097
612,000000	0,002956
611,000000	0,002906
610,000000	0,003031
609,000000	0,003043
608,000000	0,003197
607,000000	0,003013
606,000000	0,003283
605,000000	0,003475
604,000000	0,003175
603,000000	0,003208
602,000000	0,003087
601,000000	0,003179
600,000000	0,003063
599,000000	0,003341
598,000000	0,003478
597,000000	0,003562
596,000000	0,003532
595,000000	0,003599
594,000000	0,003491
593,000000	0,003547
592,000000	0,003598
591,000000	0,003620
590,000000	0,003381
589,000000	0,003458
588,000000	0,003832
587,000000	0,003560
586,000000	0,003718
585,000000	0,003533
584,000000	0,003919
583,000000	0,003863
582,000000	0,003838
581,000000	0,003910
580,000000	0,004083
579,000000	0,003780
578,000000	0,004290
577,000000	0,004399
576,000000	0,004287
575,000000	0,004310
574,000000	0,004147
573,000000	0,004295
572,000000	0,004473
571,000000	0,004447
570,000000	0,004441
569,000000	0,004649
568,000000	0,004884
567,000000	0,004882
566,000000	0,005006
565,000000	0,005221
564,000000	0,004761
563,000000	0,005222
562,000000	0,005315
561,000000	0,005142
560,000000	0,005232
559,000000	0,005066
558,000000	0,005401
557,000000	0,005171
556,000000	0,005552
555,000000	0,005004
554,000000	0,004987
553,000000	0,005235
552,000000	0,005589
551,000000	0,005643
550,000000	0,005667
549,000000	0,005869
548,000000	0,005431
547,000000	0,005895
546,000000	0,005923
545,000000	0,005755
544,000000	0,006014
543,000000	0,005928
542,000000	0,006003
541,000000	0,006028
540,000000	0,006492
539,000000	0,006619
538,000000	0,006740
537,000000	0,006917
536,000000	0,006922
535,000000	0,006737
534,000000	0,006860
533,000000	0,006993
532,000000	0,007229
531,000000	0,007473
530,000000	0,007658
529,000000	0,007898
528,000000	0,007743
527,000000	0,007928
526,000000	0,007802
525,000000	0,007738
524,000000	0,008059
523,000000	0,008120
522,000000	0,008300
521,000000	0,008648
520,000000	0,008835
519,000000	0,008830
518,000000	0,009143
517,000000	0,009446
516,000000	0,009157
515,000000	0,009410
514,000000	0,009491
513,000000	0,009425
512,000000	0,009791
511,000000	0,010182
510,000000	0,010274
509,000000	0,010389
508,000000	0,010722
507,000000	0,011235
506,000000	0,011328
505,000000	0,011340
504,000000	0,011589
503,000000	0,011626
502,000000	0,012108
501,000000	0,012191
500,000000	0,012739
499,000000	0,012955
498,000000	0,013420
497,000000	0,013517
496,000000	0,013850
495,000000	0,014013
494,000000	0,014182
493,000000	0,014185
492,000000	0,014864
491,000000	0,015320
490,000000	0,015433
489,000000	0,015891
488,000000	0,016355
487,000000	0,016655
486,000000	0,016766
485,000000	0,017131
484,000000	0,017401
483,000000	0,017944
482,000000	0,018274
481,000000	0,018209
480,000000	0,018688
479,000000	0,019380
478,000000	0,019877
477,000000	0,020000
476,000000	0,019708
475,000000	0,020480
474,000000	0,020839
473,000000	0,021397
472,000000	0,021150
471,000000	0,021826
470,000000	0,022153
469,000000	0,022696
468,000000	0,022880
467,000000	0,023341
466,000000	0,023781
465,000000	0,023757
464,000000	0,024073
463,000000	0,024623
462,000000	0,024726
461,000000	0,025253
460,000000	0,025838
459,000000	0,026393
458,000000	0,026804
457,000000	0,026679
456,000000	0,027261
455,000000	0,027325
454,000000	0,027972
453,000000	0,028159
452,000000	0,028080
451,000000	0,029221
450,000000	0,029200
449,000000	0,029692
448,000000	0,030038
447,000000	0,030405
446,000000	0,030795
445,000000	0,030745
444,000000	0,031423
443,000000	0,031729
442,000000	0,032050
441,000000	0,032216
440,000000	0,032685
439,000000	0,032720
438,000000	0,033200
437,000000	0,033472
436,000000	0,033494
435,000000	0,034051
434,000000	0,034064
433,000000	0,034665
432,000000	0,035048
431,000000	0,035507
430,000000	0,035961
429,000000	0,036380
428,000000	0,036397
427,000000	0,037077
426,000000	0,037793
425,000000	0,037703
424,000000	0,038624
423,000000	0,037957
422,000000	0,038857
421,000000	0,037202
420,000000	0,037932
419,000000	0,037931
418,000000	0,038784
417,000000	0,039094
416,000000	0,039240
415,000000	0,039571
414,000000	0,039966
413,000000	0,040458
412,000000	0,041037
411,000000	0,041105
410,000000	0,041506
409,000000	0,042116
408,000000	0,042494
407,000000	0,042956
406,000000	0,043413
405,000000	0,043671
404,000000	0,044478
403,000000	0,044604
402,000000	0,045654
401,000000	0,046124
400,000000	0,046491
399,000000	0,046966
398,000000	0,047671
397,000000	0,048207
396,000000	0,048653
395,000000	0,048977
394,000000	0,050000
393,000000	0,050428
392,000000	0,051006
391,000000	0,052132
390,000000	0,053001
