PE UV       SUBTECH     SPECTRUM    ASCII       PEDS        4.00        
   -1
branco.Sample.Raw.asc
20/09/01
14:28:19.00
20/09/01
14:28:19.00
Analyst

390,000000
1
Lambda 25
501s11081509
PerkinElmer UV WinLab 6.0.3.0730 / Lambda25 1.27

480
2
1
0
0
Both on
1
1
1
None
0
0
0
0
 
 
0
0
0
0
0
 
 
 
0
 
0
326
0
 
0
 
 
 
0
0
0
 
0
 
 
 
0
 
 
0
0
0
0
0
 
 
 
 
0
0


#HDR
-1
-1
#GR
nm
A
1.0
0.0
700,000000
-1,000000
311
8
0,004897
0,000802
#DATA
700,000000	0,000802
699,000000	0,001073
698,000000	0,001040
697,000000	0,000959
696,000000	0,000996
695,000000	0,000988
694,000000	0,001074
693,000000	0,001013
692,000000	0,000890
691,000000	0,000919
690,000000	0,000850
689,000000	0,001232
688,000000	0,001023
687,000000	0,000933
686,000000	0,001184
685,000000	0,000958
684,000000	0,000950
683,000000	0,002028
682,000000	0,001975
681,000000	0,001897
680,000000	0,001827
679,000000	0,002021
678,000000	0,001816
677,000000	0,001910
676,000000	0,001751
675,000000	0,001896
674,000000	0,001706
673,000000	0,001970
672,000000	0,001616
671,000000	0,001831
670,000000	0,002074
669,000000	0,001914
668,000000	0,001980
667,000000	0,001902
666,000000	0,001779
665,000000	0,001887
664,000000	0,001375
663,000000	0,001883
662,000000	0,001772
661,000000	0,001182
660,000000	0,001591
659,000000	0,001815
658,000000	0,001761
657,000000	0,001430
656,000000	0,001455
655,000000	0,001372
654,000000	0,001514
653,000000	0,001431
652,000000	0,001585
651,000000	0,001469
650,000000	0,001366
649,000000	0,001494
648,000000	0,001461
647,000000	0,001664
646,000000	0,001366
645,000000	0,001176
644,000000	0,001288
643,000000	0,001342
642,000000	0,001425
641,000000	0,001848
640,000000	0,001678
639,000000	0,001773
638,000000	0,001724
637,000000	0,001679
636,000000	0,001422
635,000000	0,001384
634,000000	0,001646
633,000000	0,001518
632,000000	0,001701
631,000000	0,001588
630,000000	0,001655
629,000000	0,001742
628,000000	0,001597
627,000000	0,001522
626,000000	0,001725
625,000000	0,001634
624,000000	0,001472
623,000000	0,001473
622,000000	0,001448
621,000000	0,001801
620,000000	0,001776
619,000000	0,001813
618,000000	0,001656
617,000000	0,001573
616,000000	0,001523
615,000000	0,001875
614,000000	0,001809
613,000000	0,001685
612,000000	0,001498
611,000000	0,001777
610,000000	0,001636
609,000000	0,001777
608,000000	0,001760
607,000000	0,001785
606,000000	0,001618
605,000000	0,001776
604,000000	0,001680
603,000000	0,001751
602,000000	0,001722
601,000000	0,001697
600,000000	0,001415
599,000000	0,001751
598,000000	0,001754
597,000000	0,001825
596,000000	0,001908
595,000000	0,001775
594,000000	0,001755
593,000000	0,001651
592,000000	0,001909
591,000000	0,001885
590,000000	0,001746
589,000000	0,001967
588,000000	0,002176
587,000000	0,001578
586,000000	0,001696
585,000000	0,001623
584,000000	0,001578
583,000000	0,001835
582,000000	0,001808
581,000000	0,001827
580,000000	0,002014
579,000000	0,001806
578,000000	0,002106
577,000000	0,002167
576,000000	0,002248
575,000000	0,002019
574,000000	0,002159
573,000000	0,002077
572,000000	0,002495
571,000000	0,002112
570,000000	0,002308
569,000000	0,002591
568,000000	0,002329
567,000000	0,002591
566,000000	0,002252
565,000000	0,002312
564,000000	0,001971
563,000000	0,002601
562,000000	0,002647
561,000000	0,002563
560,000000	0,002661
559,000000	0,002097
558,000000	0,002287
557,000000	0,002393
556,000000	0,002317
555,000000	0,002124
554,000000	0,002179
553,000000	0,002124
552,000000	0,002217
551,000000	0,002454
550,000000	0,002376
549,000000	0,002350
548,000000	0,002253
547,000000	0,002231
546,000000	0,002315
545,000000	0,002215
544,000000	0,002261
543,000000	0,002451
542,000000	0,002713
541,000000	0,002202
540,000000	0,002388
539,000000	0,002298
538,000000	0,002373
537,000000	0,002238
536,000000	0,002483
535,000000	0,002408
534,000000	0,002208
533,000000	0,002259
532,000000	0,002449
531,000000	0,002609
530,000000	0,002339
529,000000	0,002538
528,000000	0,002533
527,000000	0,002605
526,000000	0,002280
525,000000	0,002395
524,000000	0,002512
523,000000	0,002323
522,000000	0,002550
521,000000	0,002520
520,000000	0,002384
519,000000	0,002414
518,000000	0,002523
517,000000	0,002670
516,000000	0,002354
515,000000	0,002392
514,000000	0,002548
513,000000	0,002488
512,000000	0,002547
511,000000	0,002623
510,000000	0,002723
509,000000	0,002533
508,000000	0,002710
507,000000	0,002802
506,000000	0,002367
505,000000	0,002473
504,000000	0,002623
503,000000	0,002544
502,000000	0,002737
501,000000	0,002795
500,000000	0,002949
499,000000	0,002966
498,000000	0,002830
497,000000	0,002653
496,000000	0,002786
495,000000	0,002829
494,000000	0,002757
493,000000	0,002567
492,000000	0,002680
491,000000	0,002881
490,000000	0,002890
489,000000	0,002905
488,000000	0,002946
487,000000	0,002824
486,000000	0,002857
485,000000	0,002782
484,000000	0,002777
483,000000	0,003041
482,000000	0,003028
481,000000	0,002897
480,000000	0,003094
479,000000	0,003253
478,000000	0,003236
477,000000	0,002846
476,000000	0,002688
475,000000	0,003233
474,000000	0,003112
473,000000	0,003243
472,000000	0,003013
471,000000	0,003139
470,000000	0,003069
469,000000	0,003221
468,000000	0,003156
467,000000	0,003187
466,000000	0,003247
465,000000	0,003320
464,000000	0,003279
463,000000	0,003222
462,000000	0,003131
461,000000	0,003380
460,000000	0,003685
459,000000	0,003626
458,000000	0,003413
457,000000	0,003491
456,000000	0,003593
455,000000	0,003371
454,000000	0,003438
453,000000	0,003443
452,000000	0,003606
451,000000	0,003808
450,000000	0,003551
449,000000	0,003703
448,000000	0,003721
447,000000	0,003313
446,000000	0,003822
445,000000	0,003905
444,000000	0,003780
443,000000	0,004452
442,000000	0,004090
441,000000	0,003850
440,000000	0,004188
439,000000	0,004392
438,000000	0,003813
437,000000	0,004391
436,000000	0,004106
435,000000	0,004327
434,000000	0,003914
433,000000	0,004542
432,000000	0,004311
431,000000	0,004637
430,000000	0,004460
429,000000	0,004624
428,000000	0,004148
427,000000	0,004706
426,000000	0,004318
425,000000	0,004418
424,000000	0,004795
423,000000	0,004511
422,000000	0,004897
421,000000	0,003005
420,000000	0,003080
419,000000	0,002965
418,000000	0,002978
417,000000	0,003173
416,000000	0,003084
415,000000	0,003340
414,000000	0,003020
413,000000	0,002989
412,000000	0,003202
411,000000	0,003052
410,000000	0,003504
409,000000	0,003602
408,000000	0,003628
407,000000	0,003597
406,000000	0,003514
405,000000	0,003579
404,000000	0,003740
403,000000	0,003501
402,000000	0,003828
401,000000	0,003886
400,000000	0,003580
399,000000	0,003570
398,000000	0,004026
397,000000	0,003812
396,000000	0,004072
395,000000	0,004108
394,000000	0,004649
393,000000	0,004482
392,000000	0,004097
391,000000	0,004420
390,000000	0,004580
