nm	Abs
700.000000	0.001154
699.000000	0.001130
698.000000	0.001106
697.000000	0.001373
696.000000	0.000976
695.000000	0.001279
694.000000	0.001292
693.000000	0.001083
692.000000	0.001087
691.000000	0.001215
690.000000	0.001108
689.000000	0.001273
688.000000	0.001224
687.000000	0.001340
686.000000	0.001303
685.000000	0.001464
684.000000	0.001238
683.000000	0.001876
682.000000	0.001884
681.000000	0.001952
680.000000	0.002116
679.000000	0.002047
678.000000	0.002022
677.000000	0.002113
676.000000	0.002177
675.000000	0.001926
674.000000	0.001654
673.000000	0.002265
672.000000	0.002166
671.000000	0.002248
670.000000	0.002340
669.000000	0.002146
668.000000	0.001994
667.000000	0.001866
666.000000	0.001677
665.000000	0.001550
664.000000	0.001723
663.000000	0.001612
662.000000	0.001563
661.000000	0.001848
660.000000	0.001460
659.000000	0.002105
658.000000	0.001820
657.000000	0.001614
656.000000	0.001784
655.000000	0.001764
654.000000	0.001818
653.000000	0.001656
652.000000	0.001926
651.000000	0.001997
650.000000	0.001856
649.000000	0.001769
648.000000	0.001960
647.000000	0.001869
646.000000	0.001816
645.000000	0.001974
644.000000	0.002033
643.000000	0.001842
642.000000	0.002120
641.000000	0.001987
640.000000	0.002203
639.000000	0.002224
638.000000	0.001863
637.000000	0.002191
636.000000	0.001868
635.000000	0.001860
634.000000	0.002121
633.000000	0.002142
632.000000	0.001931
631.000000	0.001906
630.000000	0.001964
629.000000	0.002134
628.000000	0.002089
627.000000	0.001931
626.000000	0.002035
625.000000	0.001877
624.000000	0.002019
623.000000	0.002197
622.000000	0.001944
621.000000	0.002114
620.000000	0.002184
619.000000	0.002072
618.000000	0.002284
617.000000	0.002051
616.000000	0.002065
615.000000	0.001882
614.000000	0.002165
613.000000	0.002036
612.000000	0.002190
611.000000	0.002227
610.000000	0.002236
609.000000	0.002235
608.000000	0.002044
607.000000	0.002169
606.000000	0.001732
605.000000	0.001869
604.000000	0.001928
603.000000	0.002115
602.000000	0.002215
601.000000	0.002493
600.000000	0.002338
599.000000	0.002052
598.000000	0.002360
597.000000	0.002143
596.000000	0.002105
595.000000	0.002438
594.000000	0.002130
593.000000	0.002073
592.000000	0.002103
591.000000	0.002320
590.000000	0.002005
589.000000	0.002080
588.000000	0.002403
587.000000	0.002265
586.000000	0.002091
585.000000	0.001862
584.000000	0.001743
583.000000	0.002319
582.000000	0.002476
581.000000	0.002344
580.000000	0.002418
579.000000	0.002294
578.000000	0.002241
577.000000	0.002156
576.000000	0.002188
575.000000	0.002147
574.000000	0.002339
573.000000	0.002493
572.000000	0.002731
571.000000	0.002316
570.000000	0.002563
569.000000	0.002461
568.000000	0.002774
567.000000	0.002525
566.000000	0.002470
565.000000	0.002692
564.000000	0.002443
563.000000	0.002710
562.000000	0.002630
561.000000	0.002562
560.000000	0.003168
559.000000	0.002257
558.000000	0.002790
557.000000	0.002613
556.000000	0.002875
555.000000	0.002417
554.000000	0.002922
553.000000	0.002579
552.000000	0.002824
551.000000	0.002570
550.000000	0.002684
549.000000	0.002408
548.000000	0.002658
547.000000	0.002857
546.000000	0.003088
545.000000	0.003076
544.000000	0.003151
543.000000	0.002669
542.000000	0.002888
541.000000	0.003202
540.000000	0.003305
539.000000	0.003074
538.000000	0.003302
537.000000	0.003374
536.000000	0.003394
535.000000	0.003386
534.000000	0.003060
533.000000	0.003398
532.000000	0.003529
531.000000	0.003157
530.000000	0.003549
529.000000	0.003180
528.000000	0.003501
527.000000	0.003438
526.000000	0.003485
525.000000	0.003487
524.000000	0.003377
523.000000	0.003703
522.000000	0.003706
521.000000	0.003385
520.000000	0.003580
519.000000	0.003634
518.000000	0.003668
517.000000	0.003723
516.000000	0.003765
515.000000	0.004117
514.000000	0.004007
513.000000	0.003760
512.000000	0.004076
511.000000	0.003940
510.000000	0.004210
509.000000	0.003838
508.000000	0.004247
507.000000	0.004167
506.000000	0.004195
505.000000	0.004578
504.000000	0.004489
503.000000	0.004459
502.000000	0.004618
501.000000	0.004549
500.000000	0.004851
499.000000	0.004673
498.000000	0.004676
497.000000	0.004782
496.000000	0.004931
495.000000	0.005061
494.000000	0.005205
493.000000	0.005031
492.000000	0.005520
491.000000	0.004955
490.000000	0.005453
489.000000	0.005383
488.000000	0.005399
487.000000	0.005507
486.000000	0.005689
485.000000	0.005752
484.000000	0.005932
483.000000	0.005886
482.000000	0.006118
481.000000	0.006148
480.000000	0.006033
479.000000	0.005904
478.000000	0.006084
477.000000	0.006176
476.000000	0.006208
475.000000	0.006445
474.000000	0.006495
473.000000	0.006583
472.000000	0.006668
471.000000	0.006903
470.000000	0.006856
469.000000	0.007124
468.000000	0.007181
467.000000	0.007297
466.000000	0.007474
465.000000	0.007323
464.000000	0.007602
463.000000	0.007821
462.000000	0.007795
461.000000	0.007918
460.000000	0.008015
459.000000	0.008259
458.000000	0.008138
457.000000	0.008466
456.000000	0.008238
455.000000	0.008295
454.000000	0.008628
453.000000	0.009005
452.000000	0.008754
451.000000	0.009167
450.000000	0.009268
449.000000	0.009186
448.000000	0.009444
447.000000	0.009245
446.000000	0.009021
445.000000	0.009806
444.000000	0.009139
443.000000	0.009631
442.000000	0.010024
441.000000	0.010202
440.000000	0.010210
439.000000	0.010013
438.000000	0.010025
437.000000	0.010317
436.000000	0.010439
435.000000	0.010673
434.000000	0.011028
433.000000	0.011022
432.000000	0.010439
431.000000	0.010498
430.000000	0.011200
429.000000	0.010776
428.000000	0.011095
427.000000	0.010816
426.000000	0.011289
425.000000	0.011841
424.000000	0.011673
423.000000	0.011451
422.000000	0.011662
421.000000	0.010415
420.000000	0.010393
419.000000	0.010193
418.000000	0.010352
417.000000	0.010750
416.000000	0.010619
415.000000	0.010674
414.000000	0.010893
413.000000	0.010718
412.000000	0.011043
411.000000	0.011008
410.000000	0.010863
409.000000	0.010842
408.000000	0.011290
407.000000	0.011357
406.000000	0.011231
405.000000	0.011377
404.000000	0.011251
403.000000	0.011184
402.000000	0.011221
401.000000	0.011275
400.000000	0.011554
399.000000	0.011727
398.000000	0.011604
397.000000	0.011857
396.000000	0.011760
395.000000	0.011912
394.000000	0.011904
393.000000	0.011839
392.000000	0.011787
391.000000	0.012147
390.000000	0.011859
