nm	Abs
700.000000	0.001959
699.000000	0.001963
698.000000	0.001894
697.000000	0.002030
696.000000	0.001916
695.000000	0.002134
694.000000	0.002073
693.000000	0.002098
692.000000	0.001799
691.000000	0.001968
690.000000	0.001948
689.000000	0.001878
688.000000	0.002084
687.000000	0.002073
686.000000	0.002115
685.000000	0.002144
684.000000	0.002194
683.000000	0.002462
682.000000	0.002545
681.000000	0.002431
680.000000	0.002711
679.000000	0.002695
678.000000	0.002704
677.000000	0.002753
676.000000	0.002404
675.000000	0.002149
674.000000	0.002166
673.000000	0.002401
672.000000	0.002758
671.000000	0.002766
670.000000	0.002738
669.000000	0.002801
668.000000	0.002644
667.000000	0.002467
666.000000	0.002510
665.000000	0.002184
664.000000	0.002453
663.000000	0.002284
662.000000	0.002247
661.000000	0.002508
660.000000	0.002493
659.000000	0.002545
658.000000	0.002459
657.000000	0.002278
656.000000	0.002469
655.000000	0.002270
654.000000	0.002224
653.000000	0.002254
652.000000	0.002495
651.000000	0.002425
650.000000	0.002562
649.000000	0.002741
648.000000	0.002500
647.000000	0.002455
646.000000	0.002286
645.000000	0.002394
644.000000	0.002557
643.000000	0.002491
642.000000	0.002757
641.000000	0.002553
640.000000	0.002665
639.000000	0.002886
638.000000	0.002508
637.000000	0.002811
636.000000	0.002634
635.000000	0.002605
634.000000	0.002584
633.000000	0.002880
632.000000	0.002751
631.000000	0.002664
630.000000	0.002863
629.000000	0.003038
628.000000	0.002880
627.000000	0.002726
626.000000	0.002656
625.000000	0.002672
624.000000	0.002798
623.000000	0.002731
622.000000	0.002840
621.000000	0.002860
620.000000	0.003005
619.000000	0.003156
618.000000	0.003093
617.000000	0.002876
616.000000	0.002777
615.000000	0.002632
614.000000	0.002711
613.000000	0.002711
612.000000	0.002940
611.000000	0.002940
610.000000	0.002824
609.000000	0.003032
608.000000	0.002898
607.000000	0.003132
606.000000	0.002712
605.000000	0.002811
604.000000	0.002691
603.000000	0.002827
602.000000	0.002957
601.000000	0.003077
600.000000	0.003043
599.000000	0.002956
598.000000	0.002818
597.000000	0.002868
596.000000	0.002814
595.000000	0.003075
594.000000	0.002855
593.000000	0.002895
592.000000	0.002920
591.000000	0.003117
590.000000	0.002815
589.000000	0.003150
588.000000	0.003218
587.000000	0.002733
586.000000	0.002639
585.000000	0.002696
584.000000	0.002699
583.000000	0.002995
582.000000	0.003107
581.000000	0.003303
580.000000	0.003147
579.000000	0.003175
578.000000	0.003111
577.000000	0.003124
576.000000	0.003034
575.000000	0.003163
574.000000	0.003254
573.000000	0.003184
572.000000	0.003372
571.000000	0.003661
570.000000	0.003633
569.000000	0.003403
568.000000	0.003590
567.000000	0.003510
566.000000	0.003255
565.000000	0.003295
564.000000	0.003374
563.000000	0.003382
562.000000	0.003165
561.000000	0.003161
560.000000	0.003730
559.000000	0.003098
558.000000	0.003329
557.000000	0.003332
556.000000	0.003449
555.000000	0.003327
554.000000	0.003738
553.000000	0.003451
552.000000	0.003780
551.000000	0.003684
550.000000	0.003317
549.000000	0.003267
548.000000	0.003435
547.000000	0.003481
546.000000	0.003653
545.000000	0.003611
544.000000	0.003882
543.000000	0.003590
542.000000	0.003610
541.000000	0.003881
540.000000	0.003628
539.000000	0.003737
538.000000	0.003866
537.000000	0.003820
536.000000	0.003794
535.000000	0.003913
534.000000	0.003659
533.000000	0.003895
532.000000	0.003737
531.000000	0.003671
530.000000	0.003944
529.000000	0.003753
528.000000	0.003857
527.000000	0.003837
526.000000	0.003820
525.000000	0.003861
524.000000	0.003836
523.000000	0.004106
522.000000	0.004160
521.000000	0.003933
520.000000	0.003691
519.000000	0.003855
518.000000	0.003821
517.000000	0.003914
516.000000	0.004105
515.000000	0.004006
514.000000	0.003752
513.000000	0.003947
512.000000	0.003983
511.000000	0.003973
510.000000	0.004215
509.000000	0.003808
508.000000	0.003984
507.000000	0.004014
506.000000	0.004200
505.000000	0.004272
504.000000	0.004057
503.000000	0.004213
502.000000	0.004288
501.000000	0.004168
500.000000	0.004130
499.000000	0.004088
498.000000	0.004206
497.000000	0.004108
496.000000	0.004545
495.000000	0.004371
494.000000	0.004430
493.000000	0.004430
492.000000	0.004571
491.000000	0.004235
490.000000	0.004670
489.000000	0.004287
488.000000	0.004341
487.000000	0.004605
486.000000	0.004664
485.000000	0.004465
484.000000	0.004742
483.000000	0.004633
482.000000	0.004835
481.000000	0.004743
480.000000	0.004923
479.000000	0.004329
478.000000	0.004755
477.000000	0.004567
476.000000	0.004743
475.000000	0.004844
474.000000	0.004763
473.000000	0.004968
472.000000	0.004731
471.000000	0.004885
470.000000	0.004857
469.000000	0.004799
468.000000	0.005256
467.000000	0.005125
466.000000	0.005122
465.000000	0.005000
464.000000	0.005323
463.000000	0.005358
462.000000	0.005302
461.000000	0.005266
460.000000	0.005599
459.000000	0.005501
458.000000	0.005087
457.000000	0.005397
456.000000	0.005424
455.000000	0.005335
454.000000	0.005877
453.000000	0.005680
452.000000	0.005878
451.000000	0.006006
450.000000	0.005785
449.000000	0.005617
448.000000	0.005931
447.000000	0.005727
446.000000	0.005435
445.000000	0.006151
444.000000	0.005951
443.000000	0.005744
442.000000	0.006198
441.000000	0.005989
440.000000	0.006112
439.000000	0.005797
438.000000	0.006007
437.000000	0.006093
436.000000	0.006187
435.000000	0.006434
434.000000	0.006418
433.000000	0.006499
432.000000	0.006207
431.000000	0.006357
430.000000	0.006368
429.000000	0.006282
428.000000	0.006459
427.000000	0.006298
426.000000	0.006637
425.000000	0.006959
424.000000	0.006880
423.000000	0.006928
422.000000	0.006621
421.000000	0.006141
420.000000	0.005778
419.000000	0.005921
418.000000	0.006097
417.000000	0.006373
416.000000	0.006295
415.000000	0.006497
414.000000	0.006327
413.000000	0.006247
412.000000	0.006585
411.000000	0.006655
410.000000	0.006599
409.000000	0.006606
408.000000	0.007039
407.000000	0.007015
406.000000	0.006985
405.000000	0.007284
404.000000	0.007088
403.000000	0.007179
402.000000	0.007388
401.000000	0.007295
400.000000	0.007526
399.000000	0.007907
398.000000	0.007876
397.000000	0.008197
396.000000	0.008081
395.000000	0.008324
394.000000	0.008479
393.000000	0.008618
392.000000	0.008754
391.000000	0.008875
390.000000	0.009155
