nm	Abs
700.000000	0.006587
699.000000	0.006481
698.000000	0.006447
697.000000	0.006622
696.000000	0.006501
695.000000	0.006736
694.000000	0.006732
693.000000	0.006812
692.000000	0.006716
691.000000	0.006551
690.000000	0.006539
689.000000	0.006752
688.000000	0.006737
687.000000	0.006727
686.000000	0.006801
685.000000	0.006942
684.000000	0.007059
683.000000	0.007103
682.000000	0.007319
681.000000	0.007162
680.000000	0.007553
679.000000	0.007517
678.000000	0.007549
677.000000	0.007865
676.000000	0.007461
675.000000	0.007483
674.000000	0.007125
673.000000	0.007524
672.000000	0.007389
671.000000	0.007521
670.000000	0.007850
669.000000	0.007634
668.000000	0.007571
667.000000	0.007422
666.000000	0.007473
665.000000	0.007103
664.000000	0.007065
663.000000	0.007324
662.000000	0.007115
661.000000	0.007256
660.000000	0.006951
659.000000	0.007550
658.000000	0.007352
657.000000	0.007399
656.000000	0.007281
655.000000	0.007224
654.000000	0.006896
653.000000	0.006974
652.000000	0.007042
651.000000	0.007320
650.000000	0.007370
649.000000	0.007351
648.000000	0.007485
647.000000	0.007336
646.000000	0.007177
645.000000	0.007399
644.000000	0.007232
643.000000	0.006846
642.000000	0.007257
641.000000	0.007440
640.000000	0.007463
639.000000	0.007712
638.000000	0.007594
637.000000	0.007667
636.000000	0.007604
635.000000	0.007579
634.000000	0.007566
633.000000	0.007427
632.000000	0.007332
631.000000	0.007514
630.000000	0.007420
629.000000	0.007784
628.000000	0.007706
627.000000	0.007750
626.000000	0.007629
625.000000	0.007434
624.000000	0.007440
623.000000	0.007536
622.000000	0.007630
621.000000	0.007658
620.000000	0.007854
619.000000	0.007766
618.000000	0.007795
617.000000	0.007922
616.000000	0.007829
615.000000	0.007510
614.000000	0.007619
613.000000	0.007628
612.000000	0.007812
611.000000	0.007689
610.000000	0.007640
609.000000	0.007765
608.000000	0.008065
607.000000	0.007963
606.000000	0.007676
605.000000	0.007706
604.000000	0.007435
603.000000	0.007761
602.000000	0.007681
601.000000	0.007894
600.000000	0.007917
599.000000	0.007999
598.000000	0.007809
597.000000	0.008122
596.000000	0.008099
595.000000	0.008050
594.000000	0.007720
593.000000	0.007686
592.000000	0.007654
591.000000	0.007845
590.000000	0.007844
589.000000	0.008184
588.000000	0.008163
587.000000	0.007841
586.000000	0.007763
585.000000	0.007735
584.000000	0.007897
583.000000	0.008099
582.000000	0.008219
581.000000	0.008576
580.000000	0.008344
579.000000	0.008368
578.000000	0.008547
577.000000	0.008517
576.000000	0.007983
575.000000	0.008373
574.000000	0.008418
573.000000	0.008432
572.000000	0.008545
571.000000	0.008766
570.000000	0.008835
569.000000	0.008865
568.000000	0.009163
567.000000	0.008749
566.000000	0.008991
565.000000	0.008358
564.000000	0.008618
563.000000	0.008801
562.000000	0.008566
561.000000	0.008742
560.000000	0.009191
559.000000	0.008672
558.000000	0.009000
557.000000	0.008816
556.000000	0.008998
555.000000	0.008897
554.000000	0.009350
553.000000	0.009287
552.000000	0.009608
551.000000	0.009395
550.000000	0.009516
549.000000	0.009520
548.000000	0.009607
547.000000	0.009432
546.000000	0.009659
545.000000	0.009760
544.000000	0.009959
543.000000	0.010148
542.000000	0.010024
541.000000	0.010388
540.000000	0.009995
539.000000	0.010578
538.000000	0.010576
537.000000	0.010435
536.000000	0.010859
535.000000	0.010808
534.000000	0.010815
533.000000	0.010971
532.000000	0.011205
531.000000	0.011202
530.000000	0.011609
529.000000	0.011197
528.000000	0.011356
527.000000	0.011529
526.000000	0.011819
525.000000	0.011747
524.000000	0.011857
523.000000	0.012359
522.000000	0.012571
521.000000	0.012491
520.000000	0.012508
519.000000	0.012517
518.000000	0.012522
517.000000	0.012729
516.000000	0.012927
515.000000	0.013379
514.000000	0.013555
513.000000	0.013550
512.000000	0.013900
511.000000	0.013872
510.000000	0.014212
509.000000	0.014375
508.000000	0.014750
507.000000	0.014752
506.000000	0.014799
505.000000	0.015421
504.000000	0.015471
503.000000	0.015794
502.000000	0.015959
501.000000	0.016229
500.000000	0.016391
499.000000	0.016705
498.000000	0.016725
497.000000	0.016955
496.000000	0.017538
495.000000	0.017622
494.000000	0.017682
493.000000	0.018059
492.000000	0.018588
491.000000	0.018706
490.000000	0.019186
489.000000	0.019411
488.000000	0.019484
487.000000	0.019972
486.000000	0.019932
485.000000	0.020404
484.000000	0.020865
483.000000	0.021109
482.000000	0.021650
481.000000	0.021736
480.000000	0.022122
479.000000	0.022070
478.000000	0.022705
477.000000	0.022853
476.000000	0.023436
475.000000	0.023805
474.000000	0.024360
473.000000	0.024345
472.000000	0.025013
471.000000	0.025355
470.000000	0.025395
469.000000	0.025837
468.000000	0.026038
467.000000	0.026652
466.000000	0.026973
465.000000	0.026891
464.000000	0.027669
463.000000	0.028166
462.000000	0.028200
461.000000	0.028836
460.000000	0.029160
459.000000	0.029703
458.000000	0.029815
457.000000	0.030617
456.000000	0.030574
455.000000	0.030893
454.000000	0.031813
453.000000	0.032217
452.000000	0.032294
451.000000	0.032817
450.000000	0.033415
449.000000	0.033791
448.000000	0.034342
447.000000	0.034218
446.000000	0.034421
445.000000	0.035175
444.000000	0.035528
443.000000	0.035797
442.000000	0.036585
441.000000	0.036827
440.000000	0.037087
439.000000	0.037142
438.000000	0.037383
437.000000	0.038001
436.000000	0.038373
435.000000	0.038617
434.000000	0.039551
433.000000	0.039828
432.000000	0.039694
431.000000	0.040368
430.000000	0.040802
429.000000	0.040768
428.000000	0.041122
427.000000	0.041686
426.000000	0.042128
425.000000	0.042744
424.000000	0.042721
423.000000	0.043170
422.000000	0.043548
421.000000	0.042627
420.000000	0.042766
419.000000	0.043256
418.000000	0.043494
417.000000	0.044039
416.000000	0.044341
415.000000	0.044763
414.000000	0.045183
413.000000	0.045175
412.000000	0.046032
411.000000	0.046462
410.000000	0.046392
409.000000	0.046710
408.000000	0.047055
407.000000	0.047801
406.000000	0.048012
405.000000	0.048277
404.000000	0.048559
403.000000	0.048928
402.000000	0.049121
401.000000	0.049540
400.000000	0.050145
399.000000	0.050560
398.000000	0.051032
397.000000	0.051191
396.000000	0.051893
395.000000	0.052438
394.000000	0.052568
393.000000	0.053160
392.000000	0.053703
391.000000	0.054232
390.000000	0.054467
