PE UV       SUBTECH     SPECTRUM    ASCII       PEDS        4.00        
   -1
100% or 0 Absorbance Baseline.Correction.Raw.asc
20/08/31
12:02:17.00
20/08/31
12:02:17.00
Analyst

390,000000
1
Lambda 25
501s11081509
PerkinElmer UV WinLab 6.0.3.0730 / Lambda25 1.27

480
0
1
0
0
Both on
0
1
1
None
0
0
0
0
 
 
0
0
0
0
0
 
 
 
0
 
0
326
0
 
0
 
 
 
0
0
0
 
0
 
 
 
0
 
 
0
0
0
0
0
 
 
 
 
0
0


#HDR
-1
-1
#GR
nm
A
1.0
0.0
700,000000
-1,000000
311
8
-0,007253
-0,025580
#DATA
700,000000	-0,025580
699,000000	-0,025322
698,000000	-0,025228
697,000000	-0,025162
696,000000	-0,024884
695,000000	-0,024834
694,000000	-0,024609
693,000000	-0,024461
692,000000	-0,024375
691,000000	-0,024305
690,000000	-0,024112
689,000000	-0,024223
688,000000	-0,024059
687,000000	-0,023853
686,000000	-0,023717
685,000000	-0,023516
684,000000	-0,023228
683,000000	-0,023080
682,000000	-0,022964
681,000000	-0,022668
680,000000	-0,022457
679,000000	-0,022593
678,000000	-0,022334
677,000000	-0,022453
676,000000	-0,022387
675,000000	-0,022519
674,000000	-0,022247
673,000000	-0,022173
672,000000	-0,022094
671,000000	-0,022086
670,000000	-0,022053
669,000000	-0,021871
668,000000	-0,021863
667,000000	-0,021896
666,000000	-0,021499
665,000000	-0,021264
664,000000	-0,021384
663,000000	-0,021264
662,000000	-0,021268
661,000000	-0,021040
660,000000	-0,021189
659,000000	-0,020875
658,000000	-0,020626
657,000000	-0,020672
656,000000	-0,020676
655,000000	-0,020655
654,000000	-0,020635
653,000000	-0,020626
652,000000	-0,020581
651,000000	-0,020428
650,000000	-0,020258
649,000000	-0,020187
648,000000	-0,020142
647,000000	-0,020166
646,000000	-0,019984
645,000000	-0,019955
644,000000	-0,019926
643,000000	-0,019818
642,000000	-0,019889
641,000000	-0,020046
640,000000	-0,020009
639,000000	-0,019814
638,000000	-0,019760
637,000000	-0,019602
636,000000	-0,019457
635,000000	-0,019631
634,000000	-0,019444
633,000000	-0,019889
632,000000	-0,019582
631,000000	-0,019548
630,000000	-0,019631
629,000000	-0,019548
628,000000	-0,019498
627,000000	-0,019411
626,000000	-0,019395
625,000000	-0,019436
624,000000	-0,019407
623,000000	-0,019436
622,000000	-0,019569
621,000000	-0,019490
620,000000	-0,019386
619,000000	-0,019361
618,000000	-0,019270
617,000000	-0,019087
616,000000	-0,019395
615,000000	-0,019295
614,000000	-0,019291
613,000000	-0,019341
612,000000	-0,019424
611,000000	-0,019336
610,000000	-0,019295
609,000000	-0,019291
608,000000	-0,019241
607,000000	-0,019336
606,000000	-0,019324
605,000000	-0,019395
604,000000	-0,019573
603,000000	-0,019660
602,000000	-0,019478
601,000000	-0,019532
600,000000	-0,019548
599,000000	-0,019789
598,000000	-0,019486
597,000000	-0,019702
596,000000	-0,019569
595,000000	-0,019623
594,000000	-0,019544
593,000000	-0,019494
592,000000	-0,019312
591,000000	-0,019262
590,000000	-0,019150
589,000000	-0,018513
588,000000	-0,018201
587,000000	-0,018001
586,000000	-0,017538
585,000000	-0,017071
584,000000	-0,016662
583,000000	-0,016331
582,000000	-0,015674
581,000000	-0,015196
580,000000	-0,014684
579,000000	-0,014289
578,000000	-0,013478
577,000000	-0,013191
576,000000	-0,013035
575,000000	-0,012445
574,000000	-0,012183
573,000000	-0,011934
572,000000	-0,011976
571,000000	-0,011592
570,000000	-0,011596
569,000000	-0,011647
568,000000	-0,011283
567,000000	-0,011350
566,000000	-0,011329
565,000000	-0,011075
564,000000	-0,011329
563,000000	-0,011456
562,000000	-0,011554
561,000000	-0,011236
560,000000	-0,010813
559,000000	-0,011367
558,000000	-0,011211
557,000000	-0,011562
556,000000	-0,011490
555,000000	-0,011418
554,000000	-0,011469
553,000000	-0,011393
552,000000	-0,011592
551,000000	-0,011431
550,000000	-0,011562
549,000000	-0,011499
548,000000	-0,011824
547,000000	-0,011909
546,000000	-0,012052
545,000000	-0,011845
544,000000	-0,011955
543,000000	-0,011938
542,000000	-0,011989
541,000000	-0,011921
540,000000	-0,011985
539,000000	-0,011663
538,000000	-0,012027
537,000000	-0,012023
536,000000	-0,012073
535,000000	-0,012107
534,000000	-0,012124
533,000000	-0,011816
532,000000	-0,012120
531,000000	-0,012069
530,000000	-0,012069
529,000000	-0,012187
528,000000	-0,012145
527,000000	-0,012204
526,000000	-0,012361
525,000000	-0,012335
524,000000	-0,012500
523,000000	-0,011959
522,000000	-0,012285
521,000000	-0,012348
520,000000	-0,012116
519,000000	-0,012145
518,000000	-0,012365
517,000000	-0,012652
516,000000	-0,012538
515,000000	-0,012711
514,000000	-0,012766
513,000000	-0,012736
512,000000	-0,012926
511,000000	-0,012981
510,000000	-0,012981
509,000000	-0,013002
508,000000	-0,013107
507,000000	-0,013023
506,000000	-0,013158
505,000000	-0,013448
504,000000	-0,013553
503,000000	-0,013431
502,000000	-0,013810
501,000000	-0,013789
500,000000	-0,013793
499,000000	-0,014050
498,000000	-0,014020
497,000000	-0,014205
496,000000	-0,014247
495,000000	-0,014432
494,000000	-0,014529
493,000000	-0,014306
492,000000	-0,014617
491,000000	-0,014726
490,000000	-0,014894
489,000000	-0,014974
488,000000	-0,015079
487,000000	-0,015179
486,000000	-0,015016
485,000000	-0,015070
484,000000	-0,015138
483,000000	-0,015351
482,000000	-0,015465
481,000000	-0,015381
480,000000	-0,015498
479,000000	-0,015418
478,000000	-0,015594
477,000000	-0,015372
476,000000	-0,015347
475,000000	-0,015703
474,000000	-0,015494
473,000000	-0,015423
472,000000	-0,015280
471,000000	-0,014957
470,000000	-0,014957
469,000000	-0,014701
468,000000	-0,014374
467,000000	-0,014151
466,000000	-0,013949
465,000000	-0,013806
464,000000	-0,013225
463,000000	-0,013541
462,000000	-0,013347
461,000000	-0,012938
460,000000	-0,012829
459,000000	-0,012546
458,000000	-0,012407
457,000000	-0,012361
456,000000	-0,012255
455,000000	-0,012369
454,000000	-0,012230
453,000000	-0,011968
452,000000	-0,012352
451,000000	-0,011866
450,000000	-0,012052
449,000000	-0,011841
448,000000	-0,011807
447,000000	-0,011494
446,000000	-0,011346
445,000000	-0,010842
444,000000	-0,010758
443,000000	-0,010554
442,000000	-0,010105
441,000000	-0,009387
440,000000	-0,009617
439,000000	-0,009145
438,000000	-0,009260
437,000000	-0,008715
436,000000	-0,008698
435,000000	-0,008323
434,000000	-0,008132
433,000000	-0,007744
432,000000	-0,007846
431,000000	-0,007927
430,000000	-0,007769
429,000000	-0,007569
428,000000	-0,007283
427,000000	-0,007355
426,000000	-0,007342
425,000000	-0,007607
424,000000	-0,007253
423,000000	-0,007347
422,000000	-0,007645
421,000000	-0,007257
420,000000	-0,007569
419,000000	-0,007505
418,000000	-0,007402
417,000000	-0,007889
416,000000	-0,007551
415,000000	-0,007667
414,000000	-0,007820
413,000000	-0,007752
412,000000	-0,007854
411,000000	-0,007854
410,000000	-0,008080
409,000000	-0,007906
408,000000	-0,008004
407,000000	-0,008144
406,000000	-0,008306
405,000000	-0,008349
404,000000	-0,008532
403,000000	-0,008604
402,000000	-0,008698
401,000000	-0,008813
400,000000	-0,008864
399,000000	-0,008770
398,000000	-0,008890
397,000000	-0,008928
396,000000	-0,009128
395,000000	-0,009515
394,000000	-0,009574
393,000000	-0,009553
392,000000	-0,009761
391,000000	-0,009999
390,000000	-0,009884
