PE UV       SUBTECH     SPECTRUM    ASCII       PEDS        4.00        
   -1
11.Sample.Raw.asc
20/08/31
12:19:42.00
20/08/31
12:19:42.00
Analyst

390,000000
1
Lambda 25
501s11081509
PerkinElmer UV WinLab 6.0.3.0730 / Lambda25 1.27

480
2
1
0
0
Both on
1
1
1
None
0
0
0
0
 
 
0
0
0
0
0
 
 
 
0
 
0
326
0
 
0
 
 
 
0
0
0
 
0
 
 
 
0
 
 
0
0
0
0
0
 
 
 
 
0
0


#HDR
-1
-1
#GR
nm
A
1.0
0.0
700,000000
-1,000000
311
8
0,269672
0,008406
#DATA
700,000000	0,008497
699,000000	0,008523
698,000000	0,008621
697,000000	0,008526
696,000000	0,008406
695,000000	0,008574
694,000000	0,008495
693,000000	0,008548
692,000000	0,008667
691,000000	0,008840
690,000000	0,008677
689,000000	0,008855
688,000000	0,009131
687,000000	0,008741
686,000000	0,008853
685,000000	0,008756
684,000000	0,008699
683,000000	0,009156
682,000000	0,008952
681,000000	0,008714
680,000000	0,008605
679,000000	0,008522
678,000000	0,008725
677,000000	0,008769
676,000000	0,008947
675,000000	0,009260
674,000000	0,009043
673,000000	0,009188
672,000000	0,009181
671,000000	0,009438
670,000000	0,009427
669,000000	0,009127
668,000000	0,009359
667,000000	0,009447
666,000000	0,009430
665,000000	0,009300
664,000000	0,009310
663,000000	0,009714
662,000000	0,009592
661,000000	0,009597
660,000000	0,009568
659,000000	0,009376
658,000000	0,009411
657,000000	0,009520
656,000000	0,009635
655,000000	0,009766
654,000000	0,009970
653,000000	0,009979
652,000000	0,010065
651,000000	0,009924
650,000000	0,010021
649,000000	0,010167
648,000000	0,010020
647,000000	0,010240
646,000000	0,010270
645,000000	0,010270
644,000000	0,010411
643,000000	0,010665
642,000000	0,010433
641,000000	0,010714
640,000000	0,010796
639,000000	0,010648
638,000000	0,010870
637,000000	0,010751
636,000000	0,010559
635,000000	0,011014
634,000000	0,010938
633,000000	0,011578
632,000000	0,011395
631,000000	0,011378
630,000000	0,011555
629,000000	0,011719
628,000000	0,011563
627,000000	0,011745
626,000000	0,012014
625,000000	0,011859
624,000000	0,012253
623,000000	0,012290
622,000000	0,012530
621,000000	0,012490
620,000000	0,012591
619,000000	0,012613
618,000000	0,012599
617,000000	0,012664
616,000000	0,013271
615,000000	0,013313
614,000000	0,013339
613,000000	0,013525
612,000000	0,013831
611,000000	0,013761
610,000000	0,013870
609,000000	0,014140
608,000000	0,014168
607,000000	0,014491
606,000000	0,014234
605,000000	0,014717
604,000000	0,014981
603,000000	0,015348
602,000000	0,015363
601,000000	0,015550
600,000000	0,015670
599,000000	0,016436
598,000000	0,016077
597,000000	0,016362
596,000000	0,016475
595,000000	0,016796
594,000000	0,016920
593,000000	0,017397
592,000000	0,017569
591,000000	0,018073
590,000000	0,018408
589,000000	0,018292
588,000000	0,018609
587,000000	0,019023
586,000000	0,019044
585,000000	0,019313
584,000000	0,019922
583,000000	0,020354
582,000000	0,020394
581,000000	0,020782
580,000000	0,020992
579,000000	0,021202
578,000000	0,021092
577,000000	0,021367
576,000000	0,021752
575,000000	0,022031
574,000000	0,022338
573,000000	0,022680
572,000000	0,023163
571,000000	0,023474
570,000000	0,024131
569,000000	0,024521
568,000000	0,024448
567,000000	0,024807
566,000000	0,025239
565,000000	0,025442
564,000000	0,026020
563,000000	0,026569
562,000000	0,027121
561,000000	0,027398
560,000000	0,027349
559,000000	0,029001
558,000000	0,029075
557,000000	0,029938
556,000000	0,030379
555,000000	0,031069
554,000000	0,031470
553,000000	0,031803
552,000000	0,032809
551,000000	0,033091
550,000000	0,033665
549,000000	0,033944
548,000000	0,035112
547,000000	0,035660
546,000000	0,036657
545,000000	0,036813
544,000000	0,037996
543,000000	0,038441
542,000000	0,038995
541,000000	0,039820
540,000000	0,040649
539,000000	0,041001
538,000000	0,041959
537,000000	0,042840
536,000000	0,043394
535,000000	0,044545
534,000000	0,045410
533,000000	0,045998
532,000000	0,047210
531,000000	0,047833
530,000000	0,048820
529,000000	0,049899
528,000000	0,050596
527,000000	0,051695
526,000000	0,052780
525,000000	0,053771
524,000000	0,054711
523,000000	0,055436
522,000000	0,056428
521,000000	0,057209
520,000000	0,057777
519,000000	0,058724
518,000000	0,059688
517,000000	0,060693
516,000000	0,061647
515,000000	0,062726
514,000000	0,063385
513,000000	0,064127
512,000000	0,064890
511,000000	0,065586
510,000000	0,066622
509,000000	0,066918
508,000000	0,068003
507,000000	0,068441
506,000000	0,069475
505,000000	0,070285
504,000000	0,070960
503,000000	0,071632
502,000000	0,072488
501,000000	0,073218
500,000000	0,073655
499,000000	0,074426
498,000000	0,074936
497,000000	0,075826
496,000000	0,076539
495,000000	0,077236
494,000000	0,078267
493,000000	0,078356
492,000000	0,079422
491,000000	0,080268
490,000000	0,080916
489,000000	0,081720
488,000000	0,082422
487,000000	0,083031
486,000000	0,083706
485,000000	0,084473
484,000000	0,085009
483,000000	0,086070
482,000000	0,086695
481,000000	0,087149
480,000000	0,087769
479,000000	0,088320
478,000000	0,088985
477,000000	0,089540
476,000000	0,090143
475,000000	0,091450
474,000000	0,091929
473,000000	0,092542
472,000000	0,093162
471,000000	0,094057
470,000000	0,094672
469,000000	0,095571
468,000000	0,096501
467,000000	0,097276
466,000000	0,098354
465,000000	0,099611
464,000000	0,100015
463,000000	0,101643
462,000000	0,102931
461,000000	0,103939
460,000000	0,105439
459,000000	0,106529
458,000000	0,108422
457,000000	0,110107
456,000000	0,111757
455,000000	0,113891
454,000000	0,115654
453,000000	0,117347
452,000000	0,119695
451,000000	0,121641
450,000000	0,124143
449,000000	0,126440
448,000000	0,128697
447,000000	0,131241
446,000000	0,133279
445,000000	0,135602
444,000000	0,138992
443,000000	0,142057
442,000000	0,145042
441,000000	0,148056
440,000000	0,151495
439,000000	0,155520
438,000000	0,159576
437,000000	0,163505
436,000000	0,168172
435,000000	0,172405
434,000000	0,177742
433,000000	0,182188
432,000000	0,187888
431,000000	0,194072
430,000000	0,200241
429,000000	0,207360
428,000000	0,213304
427,000000	0,220121
426,000000	0,226449
425,000000	0,232514
424,000000	0,237167
423,000000	0,241812
422,000000	0,246357
421,000000	0,247438
420,000000	0,249118
419,000000	0,249312
418,000000	0,249263
417,000000	0,248788
416,000000	0,247733
415,000000	0,246830
414,000000	0,246554
413,000000	0,246305
412,000000	0,246859
411,000000	0,247794
410,000000	0,248926
409,000000	0,249903
408,000000	0,251033
407,000000	0,252628
406,000000	0,254471
405,000000	0,255832
404,000000	0,257746
403,000000	0,260347
402,000000	0,262227
401,000000	0,264575
400,000000	0,266603
399,000000	0,267642
398,000000	0,268811
397,000000	0,269672
396,000000	0,269524
395,000000	0,269420
394,000000	0,268249
393,000000	0,267449
392,000000	0,266259
391,000000	0,265964
390,000000	0,265513
