PE UV       SUBTECH     SPECTRUM    ASCII       PEDS        4.00        
   -1
16.Sample.Raw.asc
20/08/31
12:24:08.00
20/08/31
12:24:08.00
Analyst

390,000000
1
Lambda 25
501s11081509
PerkinElmer UV WinLab 6.0.3.0730 / Lambda25 1.27

480
2
1
0
0
Both on
1
1
1
None
0
0
0
0
 
 
0
0
0
0
0
 
 
 
0
 
0
326
0
 
0
 
 
 
0
0
0
 
0
 
 
 
0
 
 
0
0
0
0
0
 
 
 
 
0
0


#HDR
-1
-1
#GR
nm
A
1.0
0.0
700,000000
-1,000000
311
8
0,021606
-0,000458
#DATA
700,000000	0,000106
699,000000	0,000053
698,000000	0,000205
697,000000	0,000074
696,000000	0,000053
695,000000	0,000016
694,000000	0,000021
693,000000	-0,000004
692,000000	-0,000041
691,000000	0,000218
690,000000	0,000107
689,000000	0,000181
688,000000	0,000144
687,000000	0,000058
686,000000	0,000189
685,000000	0,000123
684,000000	-0,000012
683,000000	-0,000181
682,000000	0,000103
681,000000	-0,000214
680,000000	-0,000458
679,000000	-0,000136
678,000000	-0,000231
677,000000	0,000054
676,000000	0,000016
675,000000	0,000260
674,000000	0,000144
673,000000	0,000070
672,000000	0,000045
671,000000	0,000165
670,000000	0,000351
669,000000	0,000178
668,000000	0,000364
667,000000	0,000450
666,000000	0,000269
665,000000	-0,000004
664,000000	0,000174
663,000000	0,000054
662,000000	0,000211
661,000000	0,000170
660,000000	0,000364
659,000000	0,000290
658,000000	0,000249
657,000000	0,000207
656,000000	0,000182
655,000000	0,000269
654,000000	0,000141
653,000000	0,000170
652,000000	0,000232
651,000000	-0,000149
650,000000	0,000025
649,000000	-0,000079
648,000000	0,000041
647,000000	-0,000108
646,000000	-0,000224
645,000000	-0,000108
644,000000	-0,000054
643,000000	-0,000133
642,000000	-0,000008
641,000000	0,000004
640,000000	0,000079
639,000000	-0,000195
638,000000	0,000178
637,000000	-0,000120
636,000000	-0,000249
635,000000	0,000212
634,000000	-0,000208
633,000000	0,000344
632,000000	0,000029
631,000000	-0,000170
630,000000	0,000295
629,000000	0,000336
628,000000	0,000332
627,000000	0,000042
626,000000	0,000104
625,000000	0,000220
624,000000	0,000079
623,000000	0,000245
622,000000	0,000386
621,000000	0,000141
620,000000	0,000386
619,000000	0,000307
618,000000	0,000266
617,000000	0,000141
616,000000	0,000603
615,000000	0,000387
614,000000	0,000187
613,000000	0,000262
612,000000	0,000395
611,000000	0,000212
610,000000	0,000133
609,000000	0,000262
608,000000	0,000324
607,000000	0,000428
606,000000	0,000283
605,000000	0,000083
604,000000	0,000378
603,000000	0,000486
602,000000	0,000104
601,000000	0,000274
600,000000	0,000420
599,000000	0,000556
598,000000	0,000170
597,000000	0,000665
596,000000	0,000449
595,000000	0,000403
594,000000	0,000307
593,000000	0,000253
592,000000	0,000249
591,000000	0,000299
590,000000	0,000682
589,000000	0,000046
588,000000	0,000229
587,000000	0,000221
586,000000	0,000221
585,000000	0,000501
584,000000	0,000050
583,000000	0,000377
582,000000	0,000189
581,000000	0,000474
580,000000	0,000311
579,000000	0,000458
578,000000	0,000101
577,000000	-0,000105
576,000000	0,000219
575,000000	-0,000017
574,000000	0,000253
573,000000	0,000085
572,000000	0,000182
571,000000	0,000004
570,000000	0,000482
569,000000	0,000546
568,000000	0,000339
567,000000	0,000461
566,000000	0,000394
565,000000	-0,000186
564,000000	0,000508
563,000000	0,000593
562,000000	0,000495
561,000000	0,000190
560,000000	0,000263
559,000000	0,000766
558,000000	0,000390
557,000000	0,000546
556,000000	0,000381
555,000000	0,000440
554,000000	0,000389
553,000000	0,000326
552,000000	0,000673
551,000000	0,000614
550,000000	0,000660
549,000000	0,000372
548,000000	0,000579
547,000000	0,000787
546,000000	0,000829
545,000000	0,000385
544,000000	0,000630
543,000000	0,000461
542,000000	0,000545
541,000000	0,000512
540,000000	0,000757
539,000000	0,000313
538,000000	0,000520
537,000000	0,000452
536,000000	0,000714
535,000000	0,000528
534,000000	0,000922
533,000000	0,000216
532,000000	0,000731
531,000000	0,000672
530,000000	0,000638
529,000000	0,000668
528,000000	0,000727
527,000000	0,000748
526,000000	0,000693
525,000000	0,000896
524,000000	0,001086
523,000000	0,000562
522,000000	0,000701
521,000000	0,001069
520,000000	0,000596
519,000000	0,000524
518,000000	0,000667
517,000000	0,000857
516,000000	0,000735
515,000000	0,000806
514,000000	0,000815
513,000000	0,000692
512,000000	0,001182
511,000000	0,001013
510,000000	0,000987
509,000000	0,001080
508,000000	0,000780
507,000000	0,000692
506,000000	0,000843
505,000000	0,001193
504,000000	0,001071
503,000000	0,000877
502,000000	0,001521
501,000000	0,001272
500,000000	0,001226
499,000000	0,001234
498,000000	0,001171
497,000000	0,001271
496,000000	0,001275
495,000000	0,001431
494,000000	0,001274
493,000000	0,001220
492,000000	0,001312
491,000000	0,001510
490,000000	0,001446
489,000000	0,001551
488,000000	0,001454
487,000000	0,001554
486,000000	0,001538
485,000000	0,001357
484,000000	0,001466
483,000000	0,001819
482,000000	0,001684
481,000000	0,001840
480,000000	0,001776
479,000000	0,001798
478,000000	0,001801
477,000000	0,001554
476,000000	0,001773
475,000000	0,001952
474,000000	0,002029
473,000000	0,002008
472,000000	0,002194
471,000000	0,001998
470,000000	0,002162
469,000000	0,002109
468,000000	0,002165
467,000000	0,001955
466,000000	0,002438
465,000000	0,002282
464,000000	0,001764
463,000000	0,002427
462,000000	0,002111
461,000000	0,002287
460,000000	0,002304
459,000000	0,002497
458,000000	0,002476
457,000000	0,002846
456,000000	0,002872
455,000000	0,002646
454,000000	0,002906
453,000000	0,002904
452,000000	0,003428
451,000000	0,003011
450,000000	0,003559
449,000000	0,003458
448,000000	0,003838
447,000000	0,003870
446,000000	0,003697
445,000000	0,003504
444,000000	0,003826
443,000000	0,003716
442,000000	0,003780
441,000000	0,003366
440,000000	0,004024
439,000000	0,003917
438,000000	0,004367
437,000000	0,004265
436,000000	0,004618
435,000000	0,004213
434,000000	0,004443
433,000000	0,003981
432,000000	0,004209
431,000000	0,004721
430,000000	0,004662
429,000000	0,004789
428,000000	0,004603
427,000000	0,005068
426,000000	0,005345
425,000000	0,005398
424,000000	0,005242
423,000000	0,005531
422,000000	0,005977
421,000000	0,006294
420,000000	0,006779
419,000000	0,006637
418,000000	0,006812
417,000000	0,007407
416,000000	0,007460
415,000000	0,007819
414,000000	0,008046
413,000000	0,008204
412,000000	0,008541
411,000000	0,008846
410,000000	0,009577
409,000000	0,009659
408,000000	0,010037
407,000000	0,010343
406,000000	0,011143
405,000000	0,011282
404,000000	0,011784
403,000000	0,012531
402,000000	0,013019
401,000000	0,013564
400,000000	0,014314
399,000000	0,014625
398,000000	0,015423
397,000000	0,015977
396,000000	0,016685
395,000000	0,017576
394,000000	0,018397
393,000000	0,018886
392,000000	0,019671
391,000000	0,020936
390,000000	0,021606
