PE UV       SUBTECH     SPECTRUM    ASCII       PEDS        4.00        
   -1
17.Sample.Raw.asc
20/08/31
12:26:20.00
20/08/31
12:26:20.00
Analyst

390,000000
1
Lambda 25
501s11081509
PerkinElmer UV WinLab 6.0.3.0730 / Lambda25 1.27

480
2
1
0
0
Both on
1
1
1
None
0
0
0
0
 
 
0
0
0
0
0
 
 
 
0
 
0
326
0
 
0
 
 
 
0
0
0
 
0
 
 
 
0
 
 
0
0
0
0
0
 
 
 
 
0
0


#HDR
-1
-1
#GR
nm
A
1.0
0.0
700,000000
-1,000000
311
8
0,008328
0,001396
#DATA
700,000000	0,001892
699,000000	0,002053
698,000000	0,001922
697,000000	0,001926
696,000000	0,001693
695,000000	0,001743
694,000000	0,001628
693,000000	0,001620
692,000000	0,001650
691,000000	0,001774
690,000000	0,001684
689,000000	0,001964
688,000000	0,001940
687,000000	0,001974
686,000000	0,001772
685,000000	0,001934
684,000000	0,001629
683,000000	0,001754
682,000000	0,001899
681,000000	0,001486
680,000000	0,001396
679,000000	0,001656
678,000000	0,001595
677,000000	0,001471
676,000000	0,001806
675,000000	0,001860
674,000000	0,001674
673,000000	0,001878
672,000000	0,001816
671,000000	0,001924
670,000000	0,001965
669,000000	0,001883
668,000000	0,002115
667,000000	0,001850
666,000000	0,001694
665,000000	0,001745
664,000000	0,001806
663,000000	0,001869
662,000000	0,001948
661,000000	0,002090
660,000000	0,002140
659,000000	0,001900
658,000000	0,001548
657,000000	0,001867
656,000000	0,001751
655,000000	0,001997
654,000000	0,001963
653,000000	0,002026
652,000000	0,002147
651,000000	0,002268
650,000000	0,001994
649,000000	0,001703
648,000000	0,001603
647,000000	0,001820
646,000000	0,001583
645,000000	0,001833
644,000000	0,001854
643,000000	0,001655
642,000000	0,001925
641,000000	0,002053
640,000000	0,002020
639,000000	0,001905
638,000000	0,001930
637,000000	0,001826
636,000000	0,001585
635,000000	0,002018
634,000000	0,001823
633,000000	0,002371
632,000000	0,002114
631,000000	0,002093
630,000000	0,002226
629,000000	0,002290
628,000000	0,002131
627,000000	0,002069
626,000000	0,001923
625,000000	0,002010
624,000000	0,002115
623,000000	0,002390
622,000000	0,002607
621,000000	0,002407
620,000000	0,002332
619,000000	0,002403
618,000000	0,002262
617,000000	0,002217
616,000000	0,002533
615,000000	0,002529
614,000000	0,002508
613,000000	0,002491
612,000000	0,002482
611,000000	0,002566
610,000000	0,002333
609,000000	0,002441
608,000000	0,002379
607,000000	0,002458
606,000000	0,002270
605,000000	0,002399
604,000000	0,002356
603,000000	0,002539
602,000000	0,002373
601,000000	0,002398
600,000000	0,002331
599,000000	0,002764
598,000000	0,002545
597,000000	0,002635
596,000000	0,002678
595,000000	0,002481
594,000000	0,002661
593,000000	0,002545
592,000000	0,002683
591,000000	0,002721
590,000000	0,003002
589,000000	0,002383
588,000000	0,002355
587,000000	0,002469
586,000000	0,002548
585,000000	0,002357
584,000000	0,002444
583,000000	0,002588
582,000000	0,002622
581,000000	0,002540
580,000000	0,002463
579,000000	0,002774
578,000000	0,002119
577,000000	0,002273
576,000000	0,002536
575,000000	0,002340
574,000000	0,002257
573,000000	0,002262
572,000000	0,002521
571,000000	0,002413
570,000000	0,002574
569,000000	0,002659
568,000000	0,002580
567,000000	0,002512
566,000000	0,002733
565,000000	0,002322
564,000000	0,002823
563,000000	0,002669
562,000000	0,002949
561,000000	0,002755
560,000000	0,002502
559,000000	0,002955
558,000000	0,002436
557,000000	0,002613
556,000000	0,002549
555,000000	0,002942
554,000000	0,002767
553,000000	0,002665
552,000000	0,003098
551,000000	0,002703
550,000000	0,002702
549,000000	0,002634
548,000000	0,002760
547,000000	0,002879
546,000000	0,003116
545,000000	0,002777
544,000000	0,003010
543,000000	0,003155
542,000000	0,003035
541,000000	0,003040
540,000000	0,002946
539,000000	0,002361
538,000000	0,002891
537,000000	0,002980
536,000000	0,002992
535,000000	0,003064
534,000000	0,003200
533,000000	0,002981
532,000000	0,003256
531,000000	0,003056
530,000000	0,003218
529,000000	0,002996
528,000000	0,003209
527,000000	0,003285
526,000000	0,003428
525,000000	0,003671
524,000000	0,003708
523,000000	0,003074
522,000000	0,003310
521,000000	0,003599
520,000000	0,003030
519,000000	0,002915
518,000000	0,003428
517,000000	0,003805
516,000000	0,003384
515,000000	0,003689
514,000000	0,003833
513,000000	0,003523
512,000000	0,003560
511,000000	0,003819
510,000000	0,003619
509,000000	0,003653
508,000000	0,003754
507,000000	0,003415
506,000000	0,003898
505,000000	0,004031
504,000000	0,003899
503,000000	0,003844
502,000000	0,004168
501,000000	0,004266
500,000000	0,004088
499,000000	0,004166
498,000000	0,003962
497,000000	0,004241
496,000000	0,004249
495,000000	0,004349
494,000000	0,004327
493,000000	0,004189
492,000000	0,004580
491,000000	0,004596
490,000000	0,004505
489,000000	0,004615
488,000000	0,004575
487,000000	0,004464
486,000000	0,004640
485,000000	0,004647
484,000000	0,004685
483,000000	0,004916
482,000000	0,004859
481,000000	0,004784
480,000000	0,004829
479,000000	0,004767
478,000000	0,004871
477,000000	0,004653
476,000000	0,004793
475,000000	0,005162
474,000000	0,004918
473,000000	0,005093
472,000000	0,005112
471,000000	0,004801
470,000000	0,005132
469,000000	0,004949
468,000000	0,004969
467,000000	0,004577
466,000000	0,004774
465,000000	0,005082
464,000000	0,004710
463,000000	0,004975
462,000000	0,005292
461,000000	0,005208
460,000000	0,005043
459,000000	0,004653
458,000000	0,004975
457,000000	0,005377
456,000000	0,005229
455,000000	0,005249
454,000000	0,005451
453,000000	0,005365
452,000000	0,005959
451,000000	0,005482
450,000000	0,005522
449,000000	0,005529
448,000000	0,005821
447,000000	0,005799
446,000000	0,005934
445,000000	0,005671
444,000000	0,005762
443,000000	0,005868
442,000000	0,005599
441,000000	0,005147
440,000000	0,005622
439,000000	0,005465
438,000000	0,005928
437,000000	0,005595
436,000000	0,005686
435,000000	0,005242
434,000000	0,005499
433,000000	0,005029
432,000000	0,005537
431,000000	0,005489
430,000000	0,005560
429,000000	0,005619
428,000000	0,004957
427,000000	0,005176
426,000000	0,005686
425,000000	0,005739
424,000000	0,005255
423,000000	0,005513
422,000000	0,005955
421,000000	0,005956
420,000000	0,006432
419,000000	0,006017
418,000000	0,006071
417,000000	0,006458
416,000000	0,006290
415,000000	0,006232
414,000000	0,006242
413,000000	0,006334
412,000000	0,006471
411,000000	0,006441
410,000000	0,006585
409,000000	0,006276
408,000000	0,006556
407,000000	0,006458
406,000000	0,006707
405,000000	0,006914
404,000000	0,006811
403,000000	0,006754
402,000000	0,006908
401,000000	0,006932
400,000000	0,007009
399,000000	0,006825
398,000000	0,007216
397,000000	0,007398
396,000000	0,007122
395,000000	0,007599
394,000000	0,007810
393,000000	0,007828
392,000000	0,007759
391,000000	0,008101
390,000000	0,008328
