PE UV       SUBTECH     SPECTRUM    ASCII       PEDS        4.00        
   -1
19.Sample.Raw.asc
20/08/31
12:28:39.00
20/08/31
12:28:39.00
Analyst

390,000000
1
Lambda 25
501s11081509
PerkinElmer UV WinLab 6.0.3.0730 / Lambda25 1.27

480
2
1
0
0
Both on
1
1
1
None
0
0
0
0
 
 
0
0
0
0
0
 
 
 
0
 
0
326
0
 
0
 
 
 
0
0
0
 
0
 
 
 
0
 
 
0
0
0
0
0
 
 
 
 
0
0


#HDR
-1
-1
#GR
nm
A
1.0
0.0
700,000000
-1,000000
311
8
0,147580
0,001294
#DATA
700,000000	0,001653
699,000000	0,001601
698,000000	0,001589
697,000000	0,001466
696,000000	0,001294
695,000000	0,001516
694,000000	0,001435
693,000000	0,001398
692,000000	0,001448
691,000000	0,001666
690,000000	0,001350
689,000000	0,001485
688,000000	0,001816
687,000000	0,001586
686,000000	0,001380
685,000000	0,001385
684,000000	0,001307
683,000000	0,001688
682,000000	0,001854
681,000000	0,001379
680,000000	0,001342
679,000000	0,001454
678,000000	0,001339
677,000000	0,001396
676,000000	0,001516
675,000000	0,001677
674,000000	0,001716
673,000000	0,001699
672,000000	0,001895
671,000000	0,001650
670,000000	0,001733
669,000000	0,001580
668,000000	0,001580
667,000000	0,001850
666,000000	0,001681
665,000000	0,001608
664,000000	0,001802
663,000000	0,001894
662,000000	0,002014
661,000000	0,001737
660,000000	0,001923
659,000000	0,001675
658,000000	0,001502
657,000000	0,001685
656,000000	0,001593
655,000000	0,001822
654,000000	0,001768
653,000000	0,001872
652,000000	0,001980
651,000000	0,001918
650,000000	0,001670
649,000000	0,001895
648,000000	0,001845
647,000000	0,001578
646,000000	0,001800
645,000000	0,001600
644,000000	0,001721
643,000000	0,001700
642,000000	0,001875
641,000000	0,002083
640,000000	0,001979
639,000000	0,001796
638,000000	0,001767
637,000000	0,001755
636,000000	0,001418
635,000000	0,002080
634,000000	0,001693
633,000000	0,002200
632,000000	0,002010
631,000000	0,001910
630,000000	0,002051
629,000000	0,001868
628,000000	0,001998
627,000000	0,001727
626,000000	0,001827
625,000000	0,001923
624,000000	0,001885
623,000000	0,002261
622,000000	0,002068
621,000000	0,002302
620,000000	0,002052
619,000000	0,002178
618,000000	0,001865
617,000000	0,001753
616,000000	0,002274
615,000000	0,001965
614,000000	0,002111
613,000000	0,002224
612,000000	0,002102
611,000000	0,001940
610,000000	0,002070
609,000000	0,001928
608,000000	0,002003
607,000000	0,002044
606,000000	0,001815
605,000000	0,001969
604,000000	0,002056
603,000000	0,001889
602,000000	0,001935
601,000000	0,002027
600,000000	0,002010
599,000000	0,002434
598,000000	0,002006
597,000000	0,002314
596,000000	0,002010
595,000000	0,002306
594,000000	0,002206
593,000000	0,002348
592,000000	0,002299
591,000000	0,002462
590,000000	0,002530
589,000000	0,001914
588,000000	0,002188
587,000000	0,002260
586,000000	0,002283
585,000000	0,002252
584,000000	0,002326
583,000000	0,002462
582,000000	0,002394
581,000000	0,002612
580,000000	0,002695
579,000000	0,002406
578,000000	0,002131
577,000000	0,002162
576,000000	0,002218
575,000000	0,002086
574,000000	0,002320
573,000000	0,002203
572,000000	0,002585
571,000000	0,002757
570,000000	0,002727
569,000000	0,002787
568,000000	0,002487
567,000000	0,002614
566,000000	0,002512
565,000000	0,002390
564,000000	0,002857
563,000000	0,002890
562,000000	0,003013
561,000000	0,002640
560,000000	0,002605
559,000000	0,002844
558,000000	0,002730
557,000000	0,003026
556,000000	0,002762
555,000000	0,002835
554,000000	0,002822
553,000000	0,002946
552,000000	0,003183
551,000000	0,002792
550,000000	0,002843
549,000000	0,002830
548,000000	0,003109
547,000000	0,003232
546,000000	0,003112
545,000000	0,003011
544,000000	0,003053
543,000000	0,002917
542,000000	0,003048
541,000000	0,003074
540,000000	0,003040
539,000000	0,002838
538,000000	0,003154
537,000000	0,003120
536,000000	0,003124
535,000000	0,003367
534,000000	0,003413
533,000000	0,003190
532,000000	0,003498
531,000000	0,003320
530,000000	0,003103
529,000000	0,003430
528,000000	0,003298
527,000000	0,003476
526,000000	0,003739
525,000000	0,003705
524,000000	0,004100
523,000000	0,003649
522,000000	0,003846
521,000000	0,003777
520,000000	0,003524
519,000000	0,003677
518,000000	0,003607
517,000000	0,003766
516,000000	0,003763
515,000000	0,004200
514,000000	0,004072
513,000000	0,004042
512,000000	0,004470
511,000000	0,004146
510,000000	0,004385
509,000000	0,004555
508,000000	0,004268
507,000000	0,004359
506,000000	0,004608
505,000000	0,004839
504,000000	0,004715
503,000000	0,004601
502,000000	0,005091
501,000000	0,005087
500,000000	0,005044
499,000000	0,005160
498,000000	0,005182
497,000000	0,005065
496,000000	0,005337
495,000000	0,005717
494,000000	0,005661
493,000000	0,005638
492,000000	0,005604
491,000000	0,005828
490,000000	0,005979
489,000000	0,005816
488,000000	0,006240
487,000000	0,006413
486,000000	0,006118
485,000000	0,006108
484,000000	0,006542
483,000000	0,006790
482,000000	0,006890
481,000000	0,006840
480,000000	0,006843
479,000000	0,006916
478,000000	0,007258
477,000000	0,007322
476,000000	0,007386
475,000000	0,007866
474,000000	0,008053
473,000000	0,007969
472,000000	0,008143
471,000000	0,008123
470,000000	0,008256
469,000000	0,008453
468,000000	0,008494
467,000000	0,008674
466,000000	0,008747
465,000000	0,008823
464,000000	0,008981
463,000000	0,009473
462,000000	0,009904
461,000000	0,009749
460,000000	0,009761
459,000000	0,010043
458,000000	0,010332
457,000000	0,010809
456,000000	0,011023
455,000000	0,011358
454,000000	0,011544
453,000000	0,011217
452,000000	0,012222
451,000000	0,012105
450,000000	0,012648
449,000000	0,013050
448,000000	0,013400
447,000000	0,013597
446,000000	0,013903
445,000000	0,013683
444,000000	0,014334
443,000000	0,014481
442,000000	0,015115
441,000000	0,014797
440,000000	0,015674
439,000000	0,015510
438,000000	0,016631
437,000000	0,016113
436,000000	0,017047
435,000000	0,017204
434,000000	0,017371
433,000000	0,017645
432,000000	0,018343
431,000000	0,019150
430,000000	0,019125
429,000000	0,019456
428,000000	0,019929
427,000000	0,020431
426,000000	0,021355
425,000000	0,021754
424,000000	0,022442
423,000000	0,023058
422,000000	0,023929
421,000000	0,024041
420,000000	0,024994
419,000000	0,025822
418,000000	0,026822
417,000000	0,028295
416,000000	0,028910
415,000000	0,030094
414,000000	0,031388
413,000000	0,032417
412,000000	0,034066
411,000000	0,035591
410,000000	0,037315
409,000000	0,038942
408,000000	0,040507
407,000000	0,042397
406,000000	0,044419
405,000000	0,046273
404,000000	0,048299
403,000000	0,050256
402,000000	0,052501
401,000000	0,054942
400,000000	0,057429
399,000000	0,060573
398,000000	0,063840
397,000000	0,067625
396,000000	0,072820
395,000000	0,079672
394,000000	0,087690
393,000000	0,097794
392,000000	0,111387
391,000000	0,127582
390,000000	0,147580
