PE UV       SUBTECH     SPECTRUM    ASCII       PEDS        4.00        
   -1
31.Sample.Raw.asc
20/08/31
12:37:57.00
20/08/31
12:37:57.00
Analyst

390,000000
1
Lambda 25
501s11081509
PerkinElmer UV WinLab 6.0.3.0730 / Lambda25 1.27

480
2
1
0
0
Both on
1
1
1
None
0
0
0
0
 
 
0
0
0
0
0
 
 
 
0
 
0
326
0
 
0
 
 
 
0
0
0
 
0
 
 
 
0
 
 
0
0
0
0
0
 
 
 
 
0
0


#HDR
-1
-1
#GR
nm
A
1.0
0.0
700,000000
-1,000000
311
8
0,043362
0,000210
#DATA
700,000000	0,000492
699,000000	0,000562
698,000000	0,000562
697,000000	0,000521
696,000000	0,000234
695,000000	0,000398
694,000000	0,000230
693,000000	0,000292
692,000000	0,000472
691,000000	0,000460
690,000000	0,000399
689,000000	0,000674
688,000000	0,000625
687,000000	0,000564
686,000000	0,000300
685,000000	0,000259
684,000000	0,000210
683,000000	0,000317
682,000000	0,000569
681,000000	0,000276
680,000000	0,000417
679,000000	0,000404
678,000000	0,000231
677,000000	0,000326
676,000000	0,000553
675,000000	0,000586
674,000000	0,000615
673,000000	0,000438
672,000000	0,000781
671,000000	0,000781
670,000000	0,000839
669,000000	0,000773
668,000000	0,000761
667,000000	0,000943
666,000000	0,000604
665,000000	0,000526
664,000000	0,000583
663,000000	0,000724
662,000000	0,000898
661,000000	0,000542
660,000000	0,000986
659,000000	0,000514
658,000000	0,000423
657,000000	0,000622
656,000000	0,000514
655,000000	0,000572
654,000000	0,000651
653,000000	0,000958
652,000000	0,000846
651,000000	0,000717
650,000000	0,000635
649,000000	0,000676
648,000000	0,000759
647,000000	0,000714
646,000000	0,000556
645,000000	0,000527
644,000000	0,000656
643,000000	0,000718
642,000000	0,000826
641,000000	0,000851
640,000000	0,000805
639,000000	0,000536
638,000000	0,000648
637,000000	0,000478
636,000000	0,000361
635,000000	0,000839
634,000000	0,000428
633,000000	0,001059
632,000000	0,000898
631,000000	0,000894
630,000000	0,001072
629,000000	0,000881
628,000000	0,000865
627,000000	0,000777
626,000000	0,000690
625,000000	0,000657
624,000000	0,000840
623,000000	0,000786
622,000000	0,000935
621,000000	0,001035
620,000000	0,000827
619,000000	0,000757
618,000000	0,000707
617,000000	0,000882
616,000000	0,000948
615,000000	0,000886
614,000000	0,000832
613,000000	0,000898
612,000000	0,000915
611,000000	0,000990
610,000000	0,000919
609,000000	0,001069
608,000000	0,000957
607,000000	0,000815
606,000000	0,000740
605,000000	0,000827
604,000000	0,000902
603,000000	0,000952
602,000000	0,000731
601,000000	0,000998
600,000000	0,001027
599,000000	0,001267
598,000000	0,000677
597,000000	0,001159
596,000000	0,000873
595,000000	0,000972
594,000000	0,001139
593,000000	0,001206
592,000000	0,001015
591,000000	0,001386
590,000000	0,001536
589,000000	0,001138
588,000000	0,001130
587,000000	0,001206
586,000000	0,001236
585,000000	0,001137
584,000000	0,001029
583,000000	0,001248
582,000000	0,001263
581,000000	0,001420
580,000000	0,001308
579,000000	0,001410
578,000000	0,001096
577,000000	0,001160
576,000000	0,001207
575,000000	0,000929
574,000000	0,001294
573,000000	0,001070
572,000000	0,001401
571,000000	0,001249
570,000000	0,001686
569,000000	0,001996
568,000000	0,001679
567,000000	0,001568
566,000000	0,001624
565,000000	0,001370
564,000000	0,001993
563,000000	0,001886
562,000000	0,001780
561,000000	0,001581
560,000000	0,001532
559,000000	0,001793
558,000000	0,001620
557,000000	0,001911
556,000000	0,001636
555,000000	0,001657
554,000000	0,001844
553,000000	0,001666
552,000000	0,001648
551,000000	0,001789
550,000000	0,001937
549,000000	0,001755
548,000000	0,002055
547,000000	0,002046
546,000000	0,002160
545,000000	0,001982
544,000000	0,002190
543,000000	0,002084
542,000000	0,002067
541,000000	0,002135
540,000000	0,002249
539,000000	0,001792
538,000000	0,002219
537,000000	0,002249
536,000000	0,002423
535,000000	0,002406
534,000000	0,002648
533,000000	0,002208
532,000000	0,002694
531,000000	0,002465
530,000000	0,002453
529,000000	0,002686
528,000000	0,002682
527,000000	0,002473
526,000000	0,002799
525,000000	0,002948
524,000000	0,003176
523,000000	0,002585
522,000000	0,002842
521,000000	0,003071
520,000000	0,002686
519,000000	0,002996
518,000000	0,002863
517,000000	0,003192
516,000000	0,003185
515,000000	0,003341
514,000000	0,003412
513,000000	0,003391
512,000000	0,003500
511,000000	0,003657
510,000000	0,003483
509,000000	0,003521
508,000000	0,003707
507,000000	0,003648
506,000000	0,003843
505,000000	0,004223
504,000000	0,004094
503,000000	0,003951
502,000000	0,004521
501,000000	0,004130
500,000000	0,004372
499,000000	0,004387
498,000000	0,004497
497,000000	0,004665
496,000000	0,004372
495,000000	0,004956
494,000000	0,004802
493,000000	0,004592
492,000000	0,004729
491,000000	0,005182
490,000000	0,005210
489,000000	0,005332
488,000000	0,005250
487,000000	0,005359
486,000000	0,005365
485,000000	0,005420
484,000000	0,005627
483,000000	0,005888
482,000000	0,005958
481,000000	0,005836
480,000000	0,006124
479,000000	0,006070
478,000000	0,006335
477,000000	0,006062
476,000000	0,006219
475,000000	0,006758
474,000000	0,006715
473,000000	0,007138
472,000000	0,007046
471,000000	0,007150
470,000000	0,007090
469,000000	0,007495
468,000000	0,007287
467,000000	0,007526
466,000000	0,007568
465,000000	0,007772
464,000000	0,007564
463,000000	0,008163
462,000000	0,008574
461,000000	0,008351
460,000000	0,008679
459,000000	0,008711
458,000000	0,009080
457,000000	0,009301
456,000000	0,009700
455,000000	0,010026
454,000000	0,010288
453,000000	0,010234
452,000000	0,010891
451,000000	0,010622
450,000000	0,011150
449,000000	0,011246
448,000000	0,011382
447,000000	0,011790
446,000000	0,011733
445,000000	0,011908
444,000000	0,012097
443,000000	0,012561
442,000000	0,012596
441,000000	0,012298
440,000000	0,013092
439,000000	0,013312
438,000000	0,013493
437,000000	0,013497
436,000000	0,013831
435,000000	0,013971
434,000000	0,014145
433,000000	0,014065
432,000000	0,014899
431,000000	0,015294
430,000000	0,014942
429,000000	0,015731
428,000000	0,015671
427,000000	0,015899
426,000000	0,016396
425,000000	0,016744
424,000000	0,016843
423,000000	0,017465
422,000000	0,017764
421,000000	0,017731
420,000000	0,018328
419,000000	0,018754
418,000000	0,018812
417,000000	0,019410
416,000000	0,019774
415,000000	0,020045
414,000000	0,020655
413,000000	0,020815
412,000000	0,021419
411,000000	0,021818
410,000000	0,022515
409,000000	0,022794
408,000000	0,023819
407,000000	0,024198
406,000000	0,024987
405,000000	0,025960
404,000000	0,026541
403,000000	0,027162
402,000000	0,028113
401,000000	0,029315
400,000000	0,030277
399,000000	0,031513
398,000000	0,032361
397,000000	0,033556
396,000000	0,034699
395,000000	0,036479
394,000000	0,037649
393,000000	0,038950
392,000000	0,040378
391,000000	0,042048
390,000000	0,043362
