PE UV       SUBTECH     SPECTRUM    ASCII       PEDS        4.00        
   -1
35.Sample.Raw.asc
20/08/31
12:40:10.00
20/08/31
12:40:10.00
Analyst

390,000000
1
Lambda 25
501s11081509
PerkinElmer UV WinLab 6.0.3.0730 / Lambda25 1.27

480
2
1
0
0
Both on
1
1
1
None
0
0
0
0
 
 
0
0
0
0
0
 
 
 
0
 
0
326
0
 
0
 
 
 
0
0
0
 
0
 
 
 
0
 
 
0
0
0
0
0
 
 
 
 
0
0


#HDR
-1
-1
#GR
nm
A
1.0
0.0
700,000000
-1,000000
311
8
1,748530
0,002480
#DATA
700,000000	0,002933
699,000000	0,002762
698,000000	0,002882
697,000000	0,002903
696,000000	0,002711
695,000000	0,002918
694,000000	0,002556
693,000000	0,002635
692,000000	0,002640
691,000000	0,002934
690,000000	0,002522
689,000000	0,002831
688,000000	0,002927
687,000000	0,002900
686,000000	0,002826
685,000000	0,002600
684,000000	0,002734
683,000000	0,002942
682,000000	0,002885
681,000000	0,002480
680,000000	0,002718
679,000000	0,002738
678,000000	0,002607
677,000000	0,002876
676,000000	0,002727
675,000000	0,003095
674,000000	0,003156
673,000000	0,003248
672,000000	0,003265
671,000000	0,003419
670,000000	0,003390
669,000000	0,003196
668,000000	0,003587
667,000000	0,003633
666,000000	0,003269
665,000000	0,003275
664,000000	0,003520
663,000000	0,003375
662,000000	0,003471
661,000000	0,003506
660,000000	0,003689
659,000000	0,003366
658,000000	0,003159
657,000000	0,003288
656,000000	0,003351
655,000000	0,003447
654,000000	0,003585
653,000000	0,003606
652,000000	0,003347
651,000000	0,003762
650,000000	0,003295
649,000000	0,003538
648,000000	0,003238
647,000000	0,003380
646,000000	0,003243
645,000000	0,003252
644,000000	0,003365
643,000000	0,003432
642,000000	0,003470
641,000000	0,003673
640,000000	0,003561
639,000000	0,003403
638,000000	0,003366
637,000000	0,003229
636,000000	0,003013
635,000000	0,003359
634,000000	0,003314
633,000000	0,003616
632,000000	0,003455
631,000000	0,003456
630,000000	0,003639
629,000000	0,003426
628,000000	0,003460
627,000000	0,003385
626,000000	0,003427
625,000000	0,003528
624,000000	0,003281
623,000000	0,003716
622,000000	0,003774
621,000000	0,003640
620,000000	0,003557
619,000000	0,003633
618,000000	0,003290
617,000000	0,003342
616,000000	0,003725
615,000000	0,003680
614,000000	0,003579
613,000000	0,003717
612,000000	0,003921
611,000000	0,003667
610,000000	0,003638
609,000000	0,003625
608,000000	0,003630
607,000000	0,003776
606,000000	0,003650
605,000000	0,003687
604,000000	0,003753
603,000000	0,004007
602,000000	0,003779
601,000000	0,003585
600,000000	0,003828
599,000000	0,004031
598,000000	0,003753
597,000000	0,003798
596,000000	0,003824
595,000000	0,003882
594,000000	0,003891
593,000000	0,003946
592,000000	0,003855
591,000000	0,003965
590,000000	0,004138
589,000000	0,003816
588,000000	0,003790
587,000000	0,004010
586,000000	0,003922
585,000000	0,003707
584,000000	0,003795
583,000000	0,004135
582,000000	0,004349
581,000000	0,004125
580,000000	0,004376
579,000000	0,004295
578,000000	0,003751
577,000000	0,003898
576,000000	0,004065
575,000000	0,003713
574,000000	0,004278
573,000000	0,004161
572,000000	0,004216
571,000000	0,004394
570,000000	0,004373
569,000000	0,004569
568,000000	0,004346
567,000000	0,004384
566,000000	0,004495
565,000000	0,004387
564,000000	0,004684
563,000000	0,004956
562,000000	0,004921
561,000000	0,004603
560,000000	0,004475
559,000000	0,005218
558,000000	0,004912
557,000000	0,005533
556,000000	0,005414
555,000000	0,005406
554,000000	0,005401
553,000000	0,005436
552,000000	0,005447
551,000000	0,005157
550,000000	0,005456
549,000000	0,005285
548,000000	0,005696
547,000000	0,005678
546,000000	0,005697
545,000000	0,005546
544,000000	0,005716
543,000000	0,005763
542,000000	0,005784
541,000000	0,005686
540,000000	0,005840
539,000000	0,005429
538,000000	0,005805
537,000000	0,005719
536,000000	0,005916
535,000000	0,006125
534,000000	0,006322
533,000000	0,005803
532,000000	0,006172
531,000000	0,006344
530,000000	0,006263
529,000000	0,006274
528,000000	0,006394
527,000000	0,006376
526,000000	0,006558
525,000000	0,006649
524,000000	0,006989
523,000000	0,006401
522,000000	0,006988
521,000000	0,007266
520,000000	0,006558
519,000000	0,006776
518,000000	0,006850
517,000000	0,007312
516,000000	0,007211
515,000000	0,007732
514,000000	0,007564
513,000000	0,007749
512,000000	0,007887
511,000000	0,007886
510,000000	0,007955
509,000000	0,007877
508,000000	0,008420
507,000000	0,008121
506,000000	0,008527
505,000000	0,008860
504,000000	0,009352
503,000000	0,009286
502,000000	0,009841
501,000000	0,010298
500,000000	0,010626
499,000000	0,011120
498,000000	0,011483
497,000000	0,011862
496,000000	0,012583
495,000000	0,013621
494,000000	0,014325
493,000000	0,015189
492,000000	0,016685
491,000000	0,018101
490,000000	0,019500
489,000000	0,021502
488,000000	0,023786
487,000000	0,026500
486,000000	0,029414
485,000000	0,033179
484,000000	0,037254
483,000000	0,042524
482,000000	0,048216
481,000000	0,054686
480,000000	0,062265
479,000000	0,071439
478,000000	0,082310
477,000000	0,094446
476,000000	0,107613
475,000000	0,124601
474,000000	0,142040
473,000000	0,162510
472,000000	0,186111
471,000000	0,212375
470,000000	0,244282
469,000000	0,279861
468,000000	0,319812
467,000000	0,365040
466,000000	0,415695
465,000000	0,471528
464,000000	0,530980
463,000000	0,597766
462,000000	0,672150
461,000000	0,752009
460,000000	0,838653
459,000000	0,933293
458,000000	1,030407
457,000000	1,125588
456,000000	1,216931
455,000000	1,301998
454,000000	1,385787
453,000000	1,458935
452,000000	1,527483
451,000000	1,579218
450,000000	1,622886
449,000000	1,659466
448,000000	1,686702
447,000000	1,705284
446,000000	1,717542
445,000000	1,717480
444,000000	1,729270
443,000000	1,732716
442,000000	1,731351
441,000000	1,739641
440,000000	1,737311
439,000000	1,743619
438,000000	1,730735
437,000000	1,733173
436,000000	1,732926
435,000000	1,730714
434,000000	1,735594
433,000000	1,739400
432,000000	1,730008
431,000000	1,741931
430,000000	1,746268
429,000000	1,732488
428,000000	1,747211
427,000000	1,722924
426,000000	1,732492
425,000000	1,740670
424,000000	1,748137
423,000000	1,743947
422,000000	1,748530
421,000000	1,492046
420,000000	1,502826
419,000000	1,493222
418,000000	1,490602
417,000000	1,490561
416,000000	1,488249
415,000000	1,486267
414,000000	1,480964
413,000000	1,480380
412,000000	1,478039
411,000000	1,469784
410,000000	1,472280
409,000000	1,468829
408,000000	1,467799
407,000000	1,463085
406,000000	1,457589
405,000000	1,456168
404,000000	1,451988
403,000000	1,446074
402,000000	1,444150
401,000000	1,441199
400,000000	1,437155
399,000000	1,432084
398,000000	1,428193
397,000000	1,424936
396,000000	1,421641
395,000000	1,414239
394,000000	1,411769
393,000000	1,405867
392,000000	1,401663
391,000000	1,399978
390,000000	1,390686
