PE UV       SUBTECH     SPECTRUM    ASCII       PEDS        4.00        
   -1
44.Sample.Raw.asc
20/08/31
12:47:06.00
20/08/31
12:47:06.00
Analyst

390,000000
1
Lambda 25
501s11081509
PerkinElmer UV WinLab 6.0.3.0730 / Lambda25 1.27

480
2
1
0
0
Both on
1
1
1
None
0
0
0
0
 
 
0
0
0
0
0
 
 
 
0
 
0
326
0
 
0
 
 
 
0
0
0
 
0
 
 
 
0
 
 
0
0
0
0
0
 
 
 
 
0
0


#HDR
-1
-1
#GR
nm
A
1.0
0.0
700,000000
-1,000000
311
8
0,013797
0,002150
#DATA
700,000000	0,002324
699,000000	0,002288
698,000000	0,002429
697,000000	0,002462
696,000000	0,002365
695,000000	0,002357
694,000000	0,002321
693,000000	0,002284
692,000000	0,002351
691,000000	0,002376
690,000000	0,002150
689,000000	0,002310
688,000000	0,002580
687,000000	0,002424
686,000000	0,002441
685,000000	0,002360
684,000000	0,002415
683,000000	0,002524
682,000000	0,002479
681,000000	0,002298
680,000000	0,002287
679,000000	0,002414
678,000000	0,002574
677,000000	0,002556
676,000000	0,002810
675,000000	0,002892
674,000000	0,002989
673,000000	0,002728
672,000000	0,002895
671,000000	0,002816
670,000000	0,002895
669,000000	0,003000
668,000000	0,002996
667,000000	0,002900
666,000000	0,002628
665,000000	0,002642
664,000000	0,002800
663,000000	0,002509
662,000000	0,002634
661,000000	0,002627
660,000000	0,002784
659,000000	0,002616
658,000000	0,002671
657,000000	0,002450
656,000000	0,002788
655,000000	0,002746
654,000000	0,002479
653,000000	0,002725
652,000000	0,002680
651,000000	0,002606
650,000000	0,002661
649,000000	0,002478
648,000000	0,002833
647,000000	0,002745
646,000000	0,002721
645,000000	0,002596
644,000000	0,002792
643,000000	0,002538
642,000000	0,002793
641,000000	0,002850
640,000000	0,002925
639,000000	0,002806
638,000000	0,002902
637,000000	0,002765
636,000000	0,002495
635,000000	0,002748
634,000000	0,002691
633,000000	0,003068
632,000000	0,002999
631,000000	0,002757
630,000000	0,002915
629,000000	0,003021
628,000000	0,003205
627,000000	0,003047
626,000000	0,003047
625,000000	0,003176
624,000000	0,003147
623,000000	0,003101
622,000000	0,003183
621,000000	0,003142
620,000000	0,003189
619,000000	0,003227
618,000000	0,003148
617,000000	0,003334
616,000000	0,003507
615,000000	0,003328
614,000000	0,003374
613,000000	0,003516
612,000000	0,003565
611,000000	0,003298
610,000000	0,003269
609,000000	0,003374
608,000000	0,003353
607,000000	0,003579
606,000000	0,003277
605,000000	0,003536
604,000000	0,003652
603,000000	0,003769
602,000000	0,003381
601,000000	0,003523
600,000000	0,003510
599,000000	0,003700
598,000000	0,003452
597,000000	0,003772
596,000000	0,003606
595,000000	0,003781
594,000000	0,003761
593,000000	0,003979
592,000000	0,003889
591,000000	0,003801
590,000000	0,003962
589,000000	0,003468
588,000000	0,003655
587,000000	0,003770
586,000000	0,003850
585,000000	0,003661
584,000000	0,003829
583,000000	0,003827
582,000000	0,003803
581,000000	0,003909
580,000000	0,003677
579,000000	0,004040
578,000000	0,003487
577,000000	0,003723
576,000000	0,003857
575,000000	0,003734
574,000000	0,003890
573,000000	0,003956
572,000000	0,004019
571,000000	0,003921
570,000000	0,004386
569,000000	0,004509
568,000000	0,004278
567,000000	0,004427
566,000000	0,004393
565,000000	0,004336
564,000000	0,004645
563,000000	0,004319
562,000000	0,004673
561,000000	0,004449
560,000000	0,003928
559,000000	0,004645
558,000000	0,003997
557,000000	0,004463
556,000000	0,004524
555,000000	0,004234
554,000000	0,004195
553,000000	0,004264
552,000000	0,004514
551,000000	0,004345
550,000000	0,004617
549,000000	0,004566
548,000000	0,004452
547,000000	0,004703
546,000000	0,004667
545,000000	0,004085
544,000000	0,004523
543,000000	0,004498
542,000000	0,004288
541,000000	0,004669
540,000000	0,004604
539,000000	0,004355
538,000000	0,004621
537,000000	0,004693
536,000000	0,004654
535,000000	0,004496
534,000000	0,004824
533,000000	0,004644
532,000000	0,004662
531,000000	0,004671
530,000000	0,004992
529,000000	0,004909
528,000000	0,004871
527,000000	0,004964
526,000000	0,005014
525,000000	0,004899
524,000000	0,005264
523,000000	0,004643
522,000000	0,004754
521,000000	0,004852
520,000000	0,004688
519,000000	0,004999
518,000000	0,005022
517,000000	0,005139
516,000000	0,004931
515,000000	0,005240
514,000000	0,005265
513,000000	0,005091
512,000000	0,005097
511,000000	0,005293
510,000000	0,005165
509,000000	0,005151
508,000000	0,005282
507,000000	0,005305
506,000000	0,005282
505,000000	0,005491
504,000000	0,005418
503,000000	0,005300
502,000000	0,005500
501,000000	0,005739
500,000000	0,005508
499,000000	0,005735
498,000000	0,005608
497,000000	0,005797
496,000000	0,005792
495,000000	0,005709
494,000000	0,006022
493,000000	0,005549
492,000000	0,005753
491,000000	0,005947
490,000000	0,005894
489,000000	0,005910
488,000000	0,005908
487,000000	0,006154
486,000000	0,005867
485,000000	0,005802
484,000000	0,006027
483,000000	0,006096
482,000000	0,006218
481,000000	0,005896
480,000000	0,006162
479,000000	0,006108
478,000000	0,006190
477,000000	0,005853
476,000000	0,006045
475,000000	0,006716
474,000000	0,006341
473,000000	0,006240
472,000000	0,006271
471,000000	0,006097
470,000000	0,006327
469,000000	0,006318
468,000000	0,006417
467,000000	0,006429
466,000000	0,006402
465,000000	0,006408
464,000000	0,006160
463,000000	0,006498
462,000000	0,006650
461,000000	0,006460
460,000000	0,006551
459,000000	0,006782
458,000000	0,006609
457,000000	0,006803
456,000000	0,006984
455,000000	0,007180
454,000000	0,007410
453,000000	0,007229
452,000000	0,007494
451,000000	0,007180
450,000000	0,007391
449,000000	0,007997
448,000000	0,008260
447,000000	0,008008
446,000000	0,007976
445,000000	0,007606
444,000000	0,007948
443,000000	0,008116
442,000000	0,007753
441,000000	0,007506
440,000000	0,007935
439,000000	0,008082
438,000000	0,008318
437,000000	0,008281
436,000000	0,008724
435,000000	0,008488
434,000000	0,008336
433,000000	0,008087
432,000000	0,008463
431,000000	0,008579
430,000000	0,008291
429,000000	0,008281
428,000000	0,008217
427,000000	0,008603
426,000000	0,008595
425,000000	0,008881
424,000000	0,009163
423,000000	0,008917
422,000000	0,009251
421,000000	0,008919
420,000000	0,009431
419,000000	0,009415
418,000000	0,009400
417,000000	0,009795
416,000000	0,009567
415,000000	0,009604
414,000000	0,009980
413,000000	0,009942
412,000000	0,009944
411,000000	0,010206
410,000000	0,010275
409,000000	0,010165
408,000000	0,010307
407,000000	0,010544
406,000000	0,010798
405,000000	0,011098
404,000000	0,011176
403,000000	0,011371
402,000000	0,011312
401,000000	0,011654
400,000000	0,011919
399,000000	0,011939
398,000000	0,011770
397,000000	0,012167
396,000000	0,012498
395,000000	0,012552
394,000000	0,012935
393,000000	0,012949
392,000000	0,013192
391,000000	0,013636
390,000000	0,013797
