PE UV       SUBTECH     SPECTRUM    ASCII       PEDS        4.00        
   -1
45.Sample.Raw.asc
20/08/31
12:49:28.00
20/08/31
12:49:28.00
Analyst

390,000000
1
Lambda 25
501s11081509
PerkinElmer UV WinLab 6.0.3.0730 / Lambda25 1.27

480
2
1
0
0
Both on
1
1
1
None
0
0
0
0
 
 
0
0
0
0
0
 
 
 
0
 
0
326
0
 
0
 
 
 
0
0
0
 
0
 
 
 
0
 
 
0
0
0
0
0
 
 
 
 
0
0


#HDR
-1
-1
#GR
nm
A
1.0
0.0
700,000000
-1,000000
311
8
0,013784
0,000852
#DATA
700,000000	0,001300
699,000000	0,001284
698,000000	0,001182
697,000000	0,001309
696,000000	0,001166
695,000000	0,001356
694,000000	0,001179
693,000000	0,001122
692,000000	0,001238
691,000000	0,001312
690,000000	0,001037
689,000000	0,001283
688,000000	0,001189
687,000000	0,001264
686,000000	0,001124
685,000000	0,001335
684,000000	0,001167
683,000000	0,001229
682,000000	0,001361
681,000000	0,001019
680,000000	0,000917
679,000000	0,000970
678,000000	0,000999
677,000000	0,001313
676,000000	0,001173
675,000000	0,001462
674,000000	0,001298
673,000000	0,001434
672,000000	0,001194
671,000000	0,001339
670,000000	0,001472
669,000000	0,001344
668,000000	0,001440
667,000000	0,001812
666,000000	0,001271
665,000000	0,001172
664,000000	0,001263
663,000000	0,001446
662,000000	0,001288
661,000000	0,001355
660,000000	0,001330
659,000000	0,001414
658,000000	0,000970
657,000000	0,001236
656,000000	0,001489
655,000000	0,001294
654,000000	0,001248
653,000000	0,001327
652,000000	0,001323
651,000000	0,001145
650,000000	0,001291
649,000000	0,001250
648,000000	0,001279
647,000000	0,001391
646,000000	0,001155
645,000000	0,001113
644,000000	0,001130
643,000000	0,000905
642,000000	0,001138
641,000000	0,001196
640,000000	0,001051
639,000000	0,001226
638,000000	0,001176
637,000000	0,000989
636,000000	0,000852
635,000000	0,001214
634,000000	0,001002
633,000000	0,001221
632,000000	0,000989
631,000000	0,001206
630,000000	0,001514
629,000000	0,001243
628,000000	0,001243
627,000000	0,001252
626,000000	0,001235
625,000000	0,001148
624,000000	0,001306
623,000000	0,001089
622,000000	0,001393
621,000000	0,001164
620,000000	0,001115
619,000000	0,001181
618,000000	0,001173
617,000000	0,001007
616,000000	0,001585
615,000000	0,001265
614,000000	0,001240
613,000000	0,001327
612,000000	0,001410
611,000000	0,001148
610,000000	0,000927
609,000000	0,001281
608,000000	0,001073
607,000000	0,001123
606,000000	0,001052
605,000000	0,001065
604,000000	0,001422
603,000000	0,001426
602,000000	0,000985
601,000000	0,001122
600,000000	0,001222
599,000000	0,001517
598,000000	0,001164
597,000000	0,001559
596,000000	0,001197
595,000000	0,001410
594,000000	0,001426
593,000000	0,001372
592,000000	0,001473
591,000000	0,001548
590,000000	0,001553
589,000000	0,001305
588,000000	0,001402
587,000000	0,001574
586,000000	0,001634
585,000000	0,001548
584,000000	0,001537
583,000000	0,001701
582,000000	0,001431
581,000000	0,001845
580,000000	0,001573
579,000000	0,001608
578,000000	0,001269
577,000000	0,001321
576,000000	0,001668
575,000000	0,001577
574,000000	0,001531
573,000000	0,001668
572,000000	0,001744
571,000000	0,001669
570,000000	0,001949
569,000000	0,002089
568,000000	0,001845
567,000000	0,002091
566,000000	0,002133
565,000000	0,002037
564,000000	0,002448
563,000000	0,002520
562,000000	0,002358
561,000000	0,002138
560,000000	0,002072
559,000000	0,002584
558,000000	0,001977
557,000000	0,002532
556,000000	0,002447
555,000000	0,002108
554,000000	0,002171
553,000000	0,002210
552,000000	0,002494
551,000000	0,002316
550,000000	0,002672
549,000000	0,002281
548,000000	0,002637
547,000000	0,002747
546,000000	0,002771
545,000000	0,002658
544,000000	0,002317
543,000000	0,002500
542,000000	0,002568
541,000000	0,002662
540,000000	0,002942
539,000000	0,002565
538,000000	0,002670
537,000000	0,002763
536,000000	0,002801
535,000000	0,002907
534,000000	0,003141
533,000000	0,002603
532,000000	0,003137
531,000000	0,003090
530,000000	0,003226
529,000000	0,003336
528,000000	0,003341
527,000000	0,003591
526,000000	0,003496
525,000000	0,003488
524,000000	0,003674
523,000000	0,003206
522,000000	0,003706
521,000000	0,003624
520,000000	0,003409
519,000000	0,003502
518,000000	0,003692
517,000000	0,003868
516,000000	0,004074
515,000000	0,004111
514,000000	0,004366
513,000000	0,004208
512,000000	0,004296
511,000000	0,004248
510,000000	0,004389
509,000000	0,004363
508,000000	0,004460
507,000000	0,004457
506,000000	0,004557
505,000000	0,004754
504,000000	0,004779
503,000000	0,004580
502,000000	0,004950
501,000000	0,004972
500,000000	0,004780
499,000000	0,005169
498,000000	0,005178
497,000000	0,005073
496,000000	0,005158
495,000000	0,005173
494,000000	0,005082
493,000000	0,005017
492,000000	0,005200
491,000000	0,005407
490,000000	0,005448
489,000000	0,005549
488,000000	0,005662
487,000000	0,005678
486,000000	0,005569
485,000000	0,005666
484,000000	0,005653
483,000000	0,005862
482,000000	0,005890
481,000000	0,005696
480,000000	0,006000
479,000000	0,005900
478,000000	0,006135
477,000000	0,005917
476,000000	0,005875
475,000000	0,006410
474,000000	0,006085
473,000000	0,006133
472,000000	0,006101
471,000000	0,006170
470,000000	0,006340
469,000000	0,006288
468,000000	0,006016
467,000000	0,006322
466,000000	0,006329
465,000000	0,006203
464,000000	0,006096
463,000000	0,006331
462,000000	0,006355
461,000000	0,006126
460,000000	0,006465
459,000000	0,006538
458,000000	0,006605
457,000000	0,006460
456,000000	0,006748
455,000000	0,007021
454,000000	0,006972
453,000000	0,006663
452,000000	0,007330
451,000000	0,006815
450,000000	0,007086
449,000000	0,007644
448,000000	0,007778
447,000000	0,007345
446,000000	0,007429
445,000000	0,007472
444,000000	0,007470
443,000000	0,007801
442,000000	0,007334
441,000000	0,007009
440,000000	0,007433
439,000000	0,007346
438,000000	0,007755
437,000000	0,007678
436,000000	0,007800
435,000000	0,007369
434,000000	0,007776
433,000000	0,007171
432,000000	0,007507
431,000000	0,007818
430,000000	0,007904
429,000000	0,007864
428,000000	0,007621
427,000000	0,007533
426,000000	0,008286
425,000000	0,007985
424,000000	0,007809
423,000000	0,007677
422,000000	0,008215
421,000000	0,008031
420,000000	0,008164
419,000000	0,008239
418,000000	0,008106
417,000000	0,008701
416,000000	0,008404
415,000000	0,008584
414,000000	0,008651
413,000000	0,008630
412,000000	0,008824
411,000000	0,009181
410,000000	0,009438
409,000000	0,009210
408,000000	0,009631
407,000000	0,009637
406,000000	0,009873
405,000000	0,010268
404,000000	0,010617
403,000000	0,010624
402,000000	0,010906
401,000000	0,011213
400,000000	0,011451
399,000000	0,011480
398,000000	0,011599
397,000000	0,011799
396,000000	0,011798
395,000000	0,012334
394,000000	0,012629
393,000000	0,012857
392,000000	0,013057
391,000000	0,013526
390,000000	0,013784
