PE UV       SUBTECH     SPECTRUM    ASCII       PEDS        4.00        
   -1
6.Sample.Raw.asc
20/08/31
12:10:00.00
20/08/31
12:10:00.00
Analyst

390,000000
1
Lambda 25
501s11081509
PerkinElmer UV WinLab 6.0.3.0730 / Lambda25 1.27

480
2
1
0
0
Both on
1
1
1
None
0
0
0
0
 
 
0
0
0
0
0
 
 
 
0
 
0
326
0
 
0
 
 
 
0
0
0
 
0
 
 
 
0
 
 
0
0
0
0
0
 
 
 
 
0
0


#HDR
-1
-1
#GR
nm
A
1.0
0.0
700,000000
-1,000000
311
8
0,836756
0,001298
#DATA
700,000000	0,004172
699,000000	0,004100
698,000000	0,004014
697,000000	0,003899
696,000000	0,003823
695,000000	0,003881
694,000000	0,003705
693,000000	0,003768
692,000000	0,003985
691,000000	0,003998
690,000000	0,003809
689,000000	0,003990
688,000000	0,004124
687,000000	0,003886
686,000000	0,003924
685,000000	0,003818
684,000000	0,003584
683,000000	0,003926
682,000000	0,003852
681,000000	0,003614
680,000000	0,003674
679,000000	0,003847
678,000000	0,003587
677,000000	0,003732
676,000000	0,003928
675,000000	0,004110
674,000000	0,004017
673,000000	0,004197
672,000000	0,003793
671,000000	0,003810
670,000000	0,004027
669,000000	0,003795
668,000000	0,003829
667,000000	0,004041
666,000000	0,003899
665,000000	0,003559
664,000000	0,003866
663,000000	0,003688
662,000000	0,003851
661,000000	0,003473
660,000000	0,003714
659,000000	0,003670
658,000000	0,003351
657,000000	0,003672
656,000000	0,003580
655,000000	0,003605
654,000000	0,003476
653,000000	0,003618
652,000000	0,003464
651,000000	0,003398
650,000000	0,003291
649,000000	0,003129
648,000000	0,003321
647,000000	0,003480
646,000000	0,003160
645,000000	0,003352
644,000000	0,003557
643,000000	0,003240
642,000000	0,003536
641,000000	0,003514
640,000000	0,003368
639,000000	0,003098
638,000000	0,002952
637,000000	0,003263
636,000000	0,002795
635,000000	0,003296
634,000000	0,003042
633,000000	0,003587
632,000000	0,003497
631,000000	0,003276
630,000000	0,003543
629,000000	0,003447
628,000000	0,003217
627,000000	0,003335
626,000000	0,003206
625,000000	0,003310
624,000000	0,003319
623,000000	0,003184
622,000000	0,003510
621,000000	0,003251
620,000000	0,003373
619,000000	0,003302
618,000000	0,002972
617,000000	0,002865
616,000000	0,003319
615,000000	0,003202
614,000000	0,003173
613,000000	0,003294
612,000000	0,003427
611,000000	0,003269
610,000000	0,003223
609,000000	0,003223
608,000000	0,003073
607,000000	0,003110
606,000000	0,003085
605,000000	0,003160
604,000000	0,003393
603,000000	0,003413
602,000000	0,003050
601,000000	0,003200
600,000000	0,003029
599,000000	0,003370
598,000000	0,002988
597,000000	0,003245
596,000000	0,003071
595,000000	0,003095
594,000000	0,003108
593,000000	0,003184
592,000000	0,003265
591,000000	0,003211
590,000000	0,003442
589,000000	0,002852
588,000000	0,002590
587,000000	0,002918
586,000000	0,003156
585,000000	0,002971
584,000000	0,001780
583,000000	0,002235
582,000000	0,002011
581,000000	0,002001
580,000000	0,002176
579,000000	0,002009
578,000000	0,001548
577,000000	0,001638
576,000000	0,001829
575,000000	0,001433
574,000000	0,001582
573,000000	0,001596
572,000000	0,001893
571,000000	0,001835
570,000000	0,001873
569,000000	0,001894
568,000000	0,001696
567,000000	0,001742
566,000000	0,001670
565,000000	0,001527
564,000000	0,001759
563,000000	0,001886
562,000000	0,001911
561,000000	0,001734
560,000000	0,001451
559,000000	0,002044
558,000000	0,001611
557,000000	0,001899
556,000000	0,001946
555,000000	0,001785
554,000000	0,001984
553,000000	0,001564
552,000000	0,001873
551,000000	0,001734
550,000000	0,001826
549,000000	0,001670
548,000000	0,001991
547,000000	0,001931
546,000000	0,001973
545,000000	0,001757
544,000000	0,001782
543,000000	0,001761
542,000000	0,001697
541,000000	0,001795
540,000000	0,001642
539,000000	0,001300
538,000000	0,001689
537,000000	0,001871
536,000000	0,001922
535,000000	0,001858
534,000000	0,001951
533,000000	0,001469
532,000000	0,001693
531,000000	0,001629
530,000000	0,001570
529,000000	0,001811
528,000000	0,001731
527,000000	0,001798
526,000000	0,002111
525,000000	0,002107
524,000000	0,002001
523,000000	0,001346
522,000000	0,001760
521,000000	0,001658
520,000000	0,001379
519,000000	0,001298
518,000000	0,001497
517,000000	0,001907
516,000000	0,001742
515,000000	0,001784
514,000000	0,001614
513,000000	0,001733
512,000000	0,001842
511,000000	0,001588
510,000000	0,001630
509,000000	0,001770
508,000000	0,001659
507,000000	0,001533
506,000000	0,001596
505,000000	0,001797
504,000000	0,001818
503,000000	0,001620
502,000000	0,001855
501,000000	0,001957
500,000000	0,001517
499,000000	0,001681
498,000000	0,001744
497,000000	0,001604
496,000000	0,001824
495,000000	0,001873
494,000000	0,001797
493,000000	0,001486
492,000000	0,001455
491,000000	0,001737
490,000000	0,001593
489,000000	0,001623
488,000000	0,001740
487,000000	0,001668
486,000000	0,001517
485,000000	0,001862
484,000000	0,001719
483,000000	0,001899
482,000000	0,001625
481,000000	0,001777
480,000000	0,001924
479,000000	0,001676
478,000000	0,001679
477,000000	0,001848
476,000000	0,001470
475,000000	0,001998
474,000000	0,002008
473,000000	0,001894
472,000000	0,001962
471,000000	0,001602
470,000000	0,001909
469,000000	0,001678
468,000000	0,001557
467,000000	0,001643
466,000000	0,002045
465,000000	0,001745
464,000000	0,001342
463,000000	0,001970
462,000000	0,001946
461,000000	0,001910
460,000000	0,001821
459,000000	0,001907
458,000000	0,001912
457,000000	0,002099
456,000000	0,001985
455,000000	0,002506
454,000000	0,002031
453,000000	0,001579
452,000000	0,002196
451,000000	0,002105
450,000000	0,002742
449,000000	0,002471
448,000000	0,002573
447,000000	0,002583
446,000000	0,002836
445,000000	0,002481
444,000000	0,002660
443,000000	0,002828
442,000000	0,002502
441,000000	0,002228
440,000000	0,002637
439,000000	0,002747
438,000000	0,003093
437,000000	0,003046
436,000000	0,003393
435,000000	0,003242
434,000000	0,003054
433,000000	0,003302
432,000000	0,003692
431,000000	0,003967
430,000000	0,004209
429,000000	0,004440
428,000000	0,004672
427,000000	0,005284
426,000000	0,006180
425,000000	0,006579
424,000000	0,006905
423,000000	0,008543
422,000000	0,009486
421,000000	0,010605
420,000000	0,012162
419,000000	0,013610
418,000000	0,015684
417,000000	0,018163
416,000000	0,020364
415,000000	0,023572
414,000000	0,027449
413,000000	0,031829
412,000000	0,037145
411,000000	0,043486
410,000000	0,050938
409,000000	0,059282
408,000000	0,069684
407,000000	0,081211
406,000000	0,094492
405,000000	0,110052
404,000000	0,127827
403,000000	0,148123
402,000000	0,172197
401,000000	0,200197
400,000000	0,230677
399,000000	0,267272
398,000000	0,304190
397,000000	0,347740
396,000000	0,397808
395,000000	0,453333
394,000000	0,515809
393,000000	0,585096
392,000000	0,664485
391,000000	0,748213
390,000000	0,836756
