PE UV       SUBTECH     SPECTRUM    ASCII       PEDS        4.00        
   -1
7.Sample.Raw.asc
20/08/31
12:12:17.00
20/08/31
12:12:17.00
Analyst

390,000000
1
Lambda 25
501s11081509
PerkinElmer UV WinLab 6.0.3.0730 / Lambda25 1.27

480
2
1
0
0
Both on
1
1
1
None
0
0
0
0
 
 
0
0
0
0
0
 
 
 
0
 
0
326
0
 
0
 
 
 
0
0
0
 
0
 
 
 
0
 
 
0
0
0
0
0
 
 
 
 
0
0


#HDR
-1
-1
#GR
nm
A
1.0
0.0
700,000000
-1,000000
311
8
0,024341
0,001619
#DATA
700,000000	0,002217
699,000000	0,002160
698,000000	0,001988
697,000000	0,002108
696,000000	0,001952
695,000000	0,002089
694,000000	0,001912
693,000000	0,001958
692,000000	0,001955
691,000000	0,002137
690,000000	0,002022
689,000000	0,002236
688,000000	0,002117
687,000000	0,002073
686,000000	0,001970
685,000000	0,002120
684,000000	0,001877
683,000000	0,001861
682,000000	0,001994
681,000000	0,001619
680,000000	0,001723
679,000000	0,001988
678,000000	0,001720
677,000000	0,001984
676,000000	0,002113
675,000000	0,002348
674,000000	0,002080
673,000000	0,002110
672,000000	0,002218
671,000000	0,002181
670,000000	0,002202
669,000000	0,002082
668,000000	0,002219
667,000000	0,002593
666,000000	0,002121
665,000000	0,002098
664,000000	0,002159
663,000000	0,001815
662,000000	0,002280
661,000000	0,002149
660,000000	0,002277
659,000000	0,001917
658,000000	0,002076
657,000000	0,002017
656,000000	0,002113
655,000000	0,002076
654,000000	0,001959
653,000000	0,002184
652,000000	0,002247
651,000000	0,001794
650,000000	0,001894
649,000000	0,002161
648,000000	0,002141
647,000000	0,002420
646,000000	0,001916
645,000000	0,002233
644,000000	0,002129
643,000000	0,001938
642,000000	0,002079
641,000000	0,002437
640,000000	0,002166
639,000000	0,001930
638,000000	0,002034
637,000000	0,002143
636,000000	0,002035
635,000000	0,002247
634,000000	0,001923
633,000000	0,002505
632,000000	0,002206
631,000000	0,002482
630,000000	0,002727
629,000000	0,002573
628,000000	0,002428
627,000000	0,002299
626,000000	0,002436
625,000000	0,002324
624,000000	0,002265
623,000000	0,002499
622,000000	0,002803
621,000000	0,002661
620,000000	0,002399
619,000000	0,002332
618,000000	0,002496
617,000000	0,002108
616,000000	0,002583
615,000000	0,002834
614,000000	0,002663
613,000000	0,002616
612,000000	0,002954
611,000000	0,002658
610,000000	0,002659
609,000000	0,002529
608,000000	0,002797
607,000000	0,002575
606,000000	0,002675
605,000000	0,002733
604,000000	0,002979
603,000000	0,002982
602,000000	0,002616
601,000000	0,002853
600,000000	0,002858
599,000000	0,003128
598,000000	0,002737
597,000000	0,003091
596,000000	0,002974
595,000000	0,003120
594,000000	0,003087
593,000000	0,003268
592,000000	0,003160
591,000000	0,003424
590,000000	0,003463
589,000000	0,002977
588,000000	0,003013
587,000000	0,003199
586,000000	0,003476
585,000000	0,003193
584,000000	0,003327
583,000000	0,003566
582,000000	0,003482
581,000000	0,003761
580,000000	0,003457
579,000000	0,003633
578,000000	0,003148
577,000000	0,003549
576,000000	0,003678
575,000000	0,003445
574,000000	0,003689
573,000000	0,003602
572,000000	0,004083
571,000000	0,004138
570,000000	0,004143
569,000000	0,004445
568,000000	0,004064
567,000000	0,004004
566,000000	0,004209
565,000000	0,003985
564,000000	0,004393
563,000000	0,004806
562,000000	0,004660
561,000000	0,004706
560,000000	0,004291
559,000000	0,004799
558,000000	0,004531
557,000000	0,005216
556,000000	0,004981
555,000000	0,004944
554,000000	0,005046
553,000000	0,005034
552,000000	0,005532
551,000000	0,005097
550,000000	0,005336
549,000000	0,005392
548,000000	0,005504
547,000000	0,005811
546,000000	0,005924
545,000000	0,005666
544,000000	0,005694
543,000000	0,005498
542,000000	0,005818
541,000000	0,005768
540,000000	0,006028
539,000000	0,005643
538,000000	0,006207
537,000000	0,006156
536,000000	0,006228
535,000000	0,006446
534,000000	0,006459
533,000000	0,006356
532,000000	0,006412
531,000000	0,006443
530,000000	0,006417
529,000000	0,006672
528,000000	0,006866
527,000000	0,007007
526,000000	0,007193
525,000000	0,007382
524,000000	0,007603
523,000000	0,007071
522,000000	0,007310
521,000000	0,007489
520,000000	0,007197
519,000000	0,007321
518,000000	0,007558
517,000000	0,008034
516,000000	0,007971
515,000000	0,007985
514,000000	0,008122
513,000000	0,008208
512,000000	0,008218
511,000000	0,008466
510,000000	0,008277
509,000000	0,008556
508,000000	0,008485
507,000000	0,008448
506,000000	0,008879
505,000000	0,009110
504,000000	0,009451
503,000000	0,009192
502,000000	0,009523
501,000000	0,009481
500,000000	0,009317
499,000000	0,009698
498,000000	0,009850
497,000000	0,010043
496,000000	0,009999
495,000000	0,010059
494,000000	0,010380
493,000000	0,010105
492,000000	0,010485
491,000000	0,010607
490,000000	0,010607
489,000000	0,010906
488,000000	0,010947
487,000000	0,011323
486,000000	0,010953
485,000000	0,010999
484,000000	0,011152
483,000000	0,011460
482,000000	0,011591
481,000000	0,011300
480,000000	0,011353
479,000000	0,011613
478,000000	0,011751
477,000000	0,011563
476,000000	0,011744
475,000000	0,012277
474,000000	0,012270
473,000000	0,012328
472,000000	0,012311
471,000000	0,012281
470,000000	0,012541
469,000000	0,012349
468,000000	0,012666
467,000000	0,012897
466,000000	0,012700
465,000000	0,012795
464,000000	0,012617
463,000000	0,013003
462,000000	0,012991
461,000000	0,012891
460,000000	0,013189
459,000000	0,013037
458,000000	0,013298
457,000000	0,013504
456,000000	0,013542
455,000000	0,014070
454,000000	0,014040
453,000000	0,013778
452,000000	0,014119
451,000000	0,014131
450,000000	0,014277
449,000000	0,014686
448,000000	0,014709
447,000000	0,014759
446,000000	0,014760
445,000000	0,014738
444,000000	0,014943
443,000000	0,014875
442,000000	0,014671
441,000000	0,014621
440,000000	0,015009
439,000000	0,014999
438,000000	0,015462
437,000000	0,014900
436,000000	0,015482
435,000000	0,015302
434,000000	0,015574
433,000000	0,015407
432,000000	0,015659
431,000000	0,015608
430,000000	0,015866
429,000000	0,015833
428,000000	0,015861
427,000000	0,015567
426,000000	0,016178
425,000000	0,016452
424,000000	0,016035
423,000000	0,016307
422,000000	0,016787
421,000000	0,017060
420,000000	0,017416
419,000000	0,017374
418,000000	0,017210
417,000000	0,018114
416,000000	0,017670
415,000000	0,017843
414,000000	0,018161
413,000000	0,018218
412,000000	0,018302
411,000000	0,018498
410,000000	0,018711
409,000000	0,018865
408,000000	0,018981
407,000000	0,019407
406,000000	0,019498
405,000000	0,019808
404,000000	0,020085
403,000000	0,019988
402,000000	0,020407
401,000000	0,020758
400,000000	0,021037
399,000000	0,021270
398,000000	0,021532
397,000000	0,021646
396,000000	0,022056
395,000000	0,022882
394,000000	0,023264
393,000000	0,023399
392,000000	0,023666
391,000000	0,024128
390,000000	0,024341
