PE UV       SUBTECH     SPECTRUM    ASCII       PEDS        4.00        
   -1
branco.Sample.Raw.asc
20/08/31
12:03:38.00
20/08/31
12:03:38.00
Analyst

390,000000
1
Lambda 25
501s11081509
PerkinElmer UV WinLab 6.0.3.0730 / Lambda25 1.27

480
2
1
0
0
Both on
1
1
1
None
0
0
0
0
 
 
0
0
0
0
0
 
 
 
0
 
0
326
0
 
0
 
 
 
0
0
0
 
0
 
 
 
0
 
 
0
0
0
0
0
 
 
 
 
0
0


#HDR
-1
-1
#GR
nm
A
1.0
0.0
700,000000
-1,000000
311
8
0,002696
-0,000504
#DATA
700,000000	0,002484
699,000000	0,002515
698,000000	0,002445
697,000000	0,002536
696,000000	0,002501
695,000000	0,002526
694,000000	0,002312
693,000000	0,002392
692,000000	0,002235
691,000000	0,002285
690,000000	0,002307
689,000000	0,002352
688,000000	0,002443
687,000000	0,002362
686,000000	0,002466
685,000000	0,002409
684,000000	0,002287
683,000000	0,002221
682,000000	0,002052
681,000000	0,001917
680,000000	0,001843
679,000000	0,002095
678,000000	0,002084
677,000000	0,002096
676,000000	0,002167
675,000000	0,002444
674,000000	0,002329
673,000000	0,002168
672,000000	0,002210
671,000000	0,002442
670,000000	0,002696
669,000000	0,002423
668,000000	0,002506
667,000000	0,002497
666,000000	0,002296
665,000000	0,002160
664,000000	0,002238
663,000000	0,002118
662,000000	0,002089
661,000000	0,001961
660,000000	0,002252
659,000000	0,002066
658,000000	0,001992
657,000000	0,001705
656,000000	0,002146
655,000000	0,001980
654,000000	0,001651
653,000000	0,002288
652,000000	0,001760
651,000000	0,001781
650,000000	0,001828
649,000000	0,001849
648,000000	0,001687
647,000000	0,001782
646,000000	0,001641
645,000000	0,001725
644,000000	0,001658
643,000000	0,001563
642,000000	0,001825
641,000000	0,001804
640,000000	0,002145
639,000000	0,001767
638,000000	0,001871
637,000000	0,001780
636,000000	0,001456
635,000000	0,001926
634,000000	0,001656
633,000000	0,002229
632,000000	0,001722
631,000000	0,001935
630,000000	0,001876
629,000000	0,001989
628,000000	0,001839
627,000000	0,001923
626,000000	0,001610
625,000000	0,001789
624,000000	0,001798
623,000000	0,001789
622,000000	0,001818
621,000000	0,002031
620,000000	0,001665
619,000000	0,001740
618,000000	0,001761
617,000000	0,001762
616,000000	0,001806
615,000000	0,001790
614,000000	0,001602
613,000000	0,001669
612,000000	0,001619
611,000000	0,001627
610,000000	0,001669
609,000000	0,001819
608,000000	0,001815
607,000000	0,001711
606,000000	0,001656
605,000000	0,001619
604,000000	0,001526
603,000000	0,001889
602,000000	0,001431
601,000000	0,001535
600,000000	0,001506
599,000000	0,001792
598,000000	0,001618
597,000000	0,001692
596,000000	0,001543
595,000000	0,001310
594,000000	0,001426
593,000000	0,001468
592,000000	0,001152
591,000000	0,001498
590,000000	0,001574
589,000000	0,001234
588,000000	0,001452
587,000000	0,001415
586,000000	0,001123
585,000000	0,001380
584,000000	0,001000
583,000000	0,001517
582,000000	0,001280
581,000000	0,001281
580,000000	0,001333
579,000000	0,001237
578,000000	0,001303
577,000000	0,001177
576,000000	0,001393
575,000000	0,002569
574,000000	0,000879
573,000000	0,001592
572,000000	0,001307
571,000000	0,001474
570,000000	0,001546
569,000000	0,001521
568,000000	0,001445
567,000000	0,001288
566,000000	0,001169
565,000000	0,000805
564,000000	0,001768
563,000000	0,001317
562,000000	0,001521
561,000000	0,001199
560,000000	0,000619
559,000000	0,001148
558,000000	0,001310
557,000000	0,001551
556,000000	0,001300
555,000000	0,001352
554,000000	0,001284
553,000000	0,001237
552,000000	0,001504
551,000000	0,001453
550,000000	0,001665
549,000000	0,001330
548,000000	0,001215
547,000000	0,001414
546,000000	0,001125
545,000000	0,000994
544,000000	0,001079
543,000000	0,000905
542,000000	0,000765
541,000000	0,001388
540,000000	0,001151
539,000000	0,000868
538,000000	0,001057
537,000000	0,000909
536,000000	0,001095
535,000000	0,001049
534,000000	0,000972
533,000000	0,000880
532,000000	0,000977
531,000000	0,000892
530,000000	0,000854
529,000000	0,001087
528,000000	0,001061
527,000000	0,000871
526,000000	0,001018
525,000000	0,000858
524,000000	0,001221
523,000000	0,000689
522,000000	0,001057
521,000000	0,000875
520,000000	0,000499
519,000000	0,000655
518,000000	0,000722
517,000000	0,000680
516,000000	0,000528
515,000000	0,000574
514,000000	0,000692
513,000000	0,000629
512,000000	0,000789
511,000000	0,000764
510,000000	0,000911
509,000000	0,000688
508,000000	0,000713
507,000000	0,000785
506,000000	0,000666
505,000000	0,001235
504,000000	0,001011
503,000000	0,000868
502,000000	0,000931
501,000000	0,000779
500,000000	0,000910
499,000000	0,000770
498,000000	0,000787
497,000000	0,000753
496,000000	0,000644
495,000000	0,000950
494,000000	0,000698
493,000000	0,000568
492,000000	0,000614
491,000000	0,000769
490,000000	0,000554
489,000000	0,000907
488,000000	0,000697
487,000000	0,000764
486,000000	0,000701
485,000000	0,000617
484,000000	0,000394
483,000000	0,000898
482,000000	0,001007
481,000000	0,000713
480,000000	0,000562
479,000000	0,000789
478,000000	0,000877
477,000000	0,000407
476,000000	0,000415
475,000000	0,000759
474,000000	0,000742
473,000000	0,000722
472,000000	0,000839
471,000000	0,000407
470,000000	0,000811
469,000000	0,000428
468,000000	0,000479
467,000000	0,000522
466,000000	0,000602
465,000000	0,000459
464,000000	-0,000008
463,000000	0,000379
462,000000	0,000320
461,000000	0,000253
460,000000	0,000114
459,000000	0,000469
458,000000	0,000173
457,000000	0,000638
456,000000	0,000367
455,000000	0,000549
454,000000	0,000448
453,000000	0,000537
452,000000	0,000786
451,000000	0,000668
450,000000	0,000837
449,000000	0,000816
448,000000	0,000706
447,000000	0,001054
446,000000	0,000699
445,000000	0,000305
444,000000	0,000454
443,000000	0,000683
442,000000	0,000420
441,000000	-0,000085
440,000000	0,000574
439,000000	0,000451
438,000000	0,000506
437,000000	0,000473
436,000000	0,000618
435,000000	0,000009
434,000000	0,000136
433,000000	-0,000162
432,000000	-0,000333
431,000000	-0,000277
430,000000	0,000124
429,000000	-0,000060
428,000000	-0,000132
427,000000	-0,000184
426,000000	-0,000504
425,000000	-0,000115
424,000000	-0,000367
423,000000	-0,000435
422,000000	-0,000077
421,000000	0,000380
420,000000	0,000470
419,000000	0,000495
418,000000	0,000231
417,000000	0,000525
416,000000	0,000162
415,000000	0,000098
414,000000	0,000222
413,000000	0,000179
412,000000	0,000307
411,000000	0,000175
410,000000	0,000132
409,000000	0,000213
408,000000	0,000043
407,000000	0,000234
406,000000	0,000196
405,000000	0,000141
404,000000	0,000285
403,000000	0,000136
402,000000	0,000251
401,000000	0,000358
400,000000	0,000277
399,000000	0,000030
398,000000	0,000094
397,000000	-0,000166
396,000000	0,000221
395,000000	0,000421
394,000000	0,000476
393,000000	0,000404
392,000000	0,000565
391,000000	0,000590
390,000000	0,000624
