PE UV       SUBTECH     SPECTRUM    ASCII       PEDS        4.00        
   -1
1.Sample.Raw.asc
20/10/03
15:35:03.00
20/10/03
15:35:03.00
Analyst

390,000000
1
Lambda 25
501s11081509
PerkinElmer UV WinLab 6.0.3.0730 / Lambda25 1.27

480
2
1
0
0
Both on
1
1
1
None
0
0
0
0
 
 
0
0
0
0
0
 
 
 
0
 
0
326
0
 
0
 
 
 
0
0
0
 
0
 
 
 
0
 
 
0
0
0
0
0
 
 
 
 
0
0


#HDR
-1
-1
#GR
nm
A
1.0
0.0
700,000000
-1,000000
311
8
0,561408
0,003837
#DATA
700,000000	0,003837
699,000000	0,004134
698,000000	0,003852
697,000000	0,004133
696,000000	0,004176
695,000000	0,004090
694,000000	0,003869
693,000000	0,004254
692,000000	0,004238
691,000000	0,004075
690,000000	0,004367
689,000000	0,004353
688,000000	0,004474
687,000000	0,004410
686,000000	0,004429
685,000000	0,004330
684,000000	0,004308
683,000000	0,004668
682,000000	0,004607
681,000000	0,004477
680,000000	0,004588
679,000000	0,004689
678,000000	0,004922
677,000000	0,004632
676,000000	0,004879
675,000000	0,005099
674,000000	0,005059
673,000000	0,005055
672,000000	0,005168
671,000000	0,005556
670,000000	0,005616
669,000000	0,005622
668,000000	0,005374
667,000000	0,005523
666,000000	0,005667
665,000000	0,005580
664,000000	0,005704
663,000000	0,005790
662,000000	0,005716
661,000000	0,005524
660,000000	0,005759
659,000000	0,005825
658,000000	0,006039
657,000000	0,005928
656,000000	0,006183
655,000000	0,006233
654,000000	0,006016
653,000000	0,006422
652,000000	0,006225
651,000000	0,006547
650,000000	0,006685
649,000000	0,006585
648,000000	0,006706
647,000000	0,006881
646,000000	0,006910
645,000000	0,006528
644,000000	0,007101
643,000000	0,006932
642,000000	0,006909
641,000000	0,007080
640,000000	0,007518
639,000000	0,007232
638,000000	0,007470
637,000000	0,007423
636,000000	0,007339
635,000000	0,007449
634,000000	0,007551
633,000000	0,007821
632,000000	0,008135
631,000000	0,007927
630,000000	0,008157
629,000000	0,008142
628,000000	0,008341
627,000000	0,008510
626,000000	0,008098
625,000000	0,008452
624,000000	0,008296
623,000000	0,008507
622,000000	0,008644
621,000000	0,008732
620,000000	0,009003
619,000000	0,008915
618,000000	0,008875
617,000000	0,009279
616,000000	0,008772
615,000000	0,009236
614,000000	0,009433
613,000000	0,009343
612,000000	0,009435
611,000000	0,009713
610,000000	0,009709
609,000000	0,009677
608,000000	0,010161
607,000000	0,009890
606,000000	0,010023
605,000000	0,010135
604,000000	0,010043
603,000000	0,010289
602,000000	0,010251
601,000000	0,010540
600,000000	0,010279
599,000000	0,010549
598,000000	0,010652
597,000000	0,010780
596,000000	0,010862
595,000000	0,010866
594,000000	0,010858
593,000000	0,010920
592,000000	0,011001
591,000000	0,010892
590,000000	0,011123
589,000000	0,011176
588,000000	0,011181
587,000000	0,011010
586,000000	0,011279
585,000000	0,011429
584,000000	0,011881
583,000000	0,011643
582,000000	0,011601
581,000000	0,011923
580,000000	0,011949
579,000000	0,012203
578,000000	0,012045
577,000000	0,011988
576,000000	0,012444
575,000000	0,012290
574,000000	0,012581
573,000000	0,012305
572,000000	0,012831
571,000000	0,012817
570,000000	0,012228
569,000000	0,012815
568,000000	0,012963
567,000000	0,012973
566,000000	0,013116
565,000000	0,013578
564,000000	0,013206
563,000000	0,013810
562,000000	0,013885
561,000000	0,013803
560,000000	0,013614
559,000000	0,014073
558,000000	0,013794
557,000000	0,014804
556,000000	0,014257
555,000000	0,014651
554,000000	0,014572
553,000000	0,014455
552,000000	0,014657
551,000000	0,014882
550,000000	0,015072
549,000000	0,015193
548,000000	0,015512
547,000000	0,015501
546,000000	0,015629
545,000000	0,015801
544,000000	0,015625
543,000000	0,015864
542,000000	0,015927
541,000000	0,016136
540,000000	0,016284
539,000000	0,016620
538,000000	0,016310
537,000000	0,016684
536,000000	0,016558
535,000000	0,017067
534,000000	0,017204
533,000000	0,017183
532,000000	0,017371
531,000000	0,017239
530,000000	0,017495
529,000000	0,017600
528,000000	0,017747
527,000000	0,017944
526,000000	0,017931
525,000000	0,018231
524,000000	0,018386
523,000000	0,018047
522,000000	0,018364
521,000000	0,018551
520,000000	0,018964
519,000000	0,019124
518,000000	0,018946
517,000000	0,019171
516,000000	0,019390
515,000000	0,019422
514,000000	0,019522
513,000000	0,019779
512,000000	0,019992
511,000000	0,020010
510,000000	0,020084
509,000000	0,020424
508,000000	0,020327
507,000000	0,020621
506,000000	0,020626
505,000000	0,020593
504,000000	0,020853
503,000000	0,021067
502,000000	0,021317
501,000000	0,021546
500,000000	0,021249
499,000000	0,021536
498,000000	0,021605
497,000000	0,021722
496,000000	0,021773
495,000000	0,022258
494,000000	0,022514
493,000000	0,022616
492,000000	0,022553
491,000000	0,022575
490,000000	0,022552
489,000000	0,023025
488,000000	0,023479
487,000000	0,023177
486,000000	0,023581
485,000000	0,023920
484,000000	0,023839
483,000000	0,023908
482,000000	0,024381
481,000000	0,024491
480,000000	0,024432
479,000000	0,024425
478,000000	0,024777
477,000000	0,025155
476,000000	0,025233
475,000000	0,025168
474,000000	0,025732
473,000000	0,025930
472,000000	0,026423
471,000000	0,026284
470,000000	0,026329
469,000000	0,026131
468,000000	0,026862
467,000000	0,027017
466,000000	0,027198
465,000000	0,027752
464,000000	0,027772
463,000000	0,027922
462,000000	0,028133
461,000000	0,028097
460,000000	0,028601
459,000000	0,028973
458,000000	0,029437
457,000000	0,029390
456,000000	0,029796
455,000000	0,029993
454,000000	0,029932
453,000000	0,030440
452,000000	0,030669
451,000000	0,031092
450,000000	0,031179
449,000000	0,031475
448,000000	0,032285
447,000000	0,032894
446,000000	0,033333
445,000000	0,033975
444,000000	0,034052
443,000000	0,034663
442,000000	0,034492
441,000000	0,035556
440,000000	0,036379
439,000000	0,036849
438,000000	0,037995
437,000000	0,038412
436,000000	0,039724
435,000000	0,039995
434,000000	0,041014
433,000000	0,042009
432,000000	0,043140
431,000000	0,044661
430,000000	0,046058
429,000000	0,047807
428,000000	0,049179
427,000000	0,050639
426,000000	0,052334
425,000000	0,054204
424,000000	0,056288
423,000000	0,059032
422,000000	0,060451
421,000000	0,063198
420,000000	0,066060
419,000000	0,069335
418,000000	0,073271
417,000000	0,077107
416,000000	0,080688
415,000000	0,085302
414,000000	0,090065
413,000000	0,095691
412,000000	0,101286
411,000000	0,107989
410,000000	0,114962
409,000000	0,122876
408,000000	0,131746
407,000000	0,141096
406,000000	0,151043
405,000000	0,162403
404,000000	0,174595
403,000000	0,188389
402,000000	0,203734
401,000000	0,221491
400,000000	0,240043
399,000000	0,262531
398,000000	0,284875
397,000000	0,308486
396,000000	0,335098
395,000000	0,364836
394,000000	0,397328
393,000000	0,432178
392,000000	0,473357
391,000000	0,516771
390,000000	0,561408
