PE UV       SUBTECH     SPECTRUM    ASCII       PEDS        4.00        
   -1
10.Sample.Raw.asc
20/10/03
15:47:41.00
20/10/03
15:47:41.00
Analyst

390,000000
1
Lambda 25
501s11081509
PerkinElmer UV WinLab 6.0.3.0730 / Lambda25 1.27

480
2
1
0
0
Both on
1
1
1
None
0
0
0
0
 
 
0
0
0
0
0
 
 
 
0
 
0
326
0
 
0
 
 
 
0
0
0
 
0
 
 
 
0
 
 
0
0
0
0
0
 
 
 
 
0
0


#HDR
-1
-1
#GR
nm
A
1.0
0.0
700,000000
-1,000000
311
8
1,254738
0,000619
#DATA
700,000000	0,000792
699,000000	0,000989
698,000000	0,000648
697,000000	0,000850
696,000000	0,000739
695,000000	0,001003
694,000000	0,000748
693,000000	0,000810
692,000000	0,000859
691,000000	0,000707
690,000000	0,000983
689,000000	0,000728
688,000000	0,000996
687,000000	0,000889
686,000000	0,000976
685,000000	0,000960
684,000000	0,000758
683,000000	0,000651
682,000000	0,000734
681,000000	0,000619
680,000000	0,000937
679,000000	0,000945
678,000000	0,001040
677,000000	0,000735
676,000000	0,000933
675,000000	0,001020
674,000000	0,001000
673,000000	0,001223
672,000000	0,000649
671,000000	0,001364
670,000000	0,001385
669,000000	0,001261
668,000000	0,001121
667,000000	0,001204
666,000000	0,001146
665,000000	0,000799
664,000000	0,001379
663,000000	0,001155
662,000000	0,000932
661,000000	0,000675
660,000000	0,000920
659,000000	0,001003
658,000000	0,001264
657,000000	0,001173
656,000000	0,001273
655,000000	0,001186
654,000000	0,001070
653,000000	0,001303
652,000000	0,001108
651,000000	0,001233
650,000000	0,001241
649,000000	0,000959
648,000000	0,001295
647,000000	0,001245
646,000000	0,001483
645,000000	0,001151
644,000000	0,001367
643,000000	0,001209
642,000000	0,001201
641,000000	0,001325
640,000000	0,001296
639,000000	0,001147
638,000000	0,001446
637,000000	0,001355
636,000000	0,001330
635,000000	0,001322
634,000000	0,001468
633,000000	0,001268
632,000000	0,001680
631,000000	0,001293
630,000000	0,001264
629,000000	0,001372
628,000000	0,001480
627,000000	0,001576
626,000000	0,001452
625,000000	0,001743
624,000000	0,001522
623,000000	0,001465
622,000000	0,001618
621,000000	0,001244
620,000000	0,001760
619,000000	0,001411
618,000000	0,001595
617,000000	0,002035
616,000000	0,001374
615,000000	0,001727
614,000000	0,001760
613,000000	0,001494
612,000000	0,001307
611,000000	0,001785
610,000000	0,001490
609,000000	0,001532
608,000000	0,002185
607,000000	0,001986
606,000000	0,001627
605,000000	0,001848
604,000000	0,002006
603,000000	0,001897
602,000000	0,001864
601,000000	0,002047
600,000000	0,001673
599,000000	0,001826
598,000000	0,002035
597,000000	0,002235
596,000000	0,001897
595,000000	0,002156
594,000000	0,002060
593,000000	0,001948
592,000000	0,001928
591,000000	0,001871
590,000000	0,002092
589,000000	0,002085
588,000000	0,002237
587,000000	0,001838
586,000000	0,001881
585,000000	0,002121
584,000000	0,002329
583,000000	0,002273
582,000000	0,002359
581,000000	0,002288
580,000000	0,002429
579,000000	0,002423
578,000000	0,002522
577,000000	0,002369
576,000000	0,002141
575,000000	0,002305
574,000000	0,002289
573,000000	0,002371
572,000000	0,002504
571,000000	0,002595
570,000000	0,002045
569,000000	0,002609
568,000000	0,002487
567,000000	0,002503
566,000000	0,003019
565,000000	0,003214
564,000000	0,002352
563,000000	0,002998
562,000000	0,003014
561,000000	0,002814
560,000000	0,002345
559,000000	0,003124
558,000000	0,003101
557,000000	0,003336
556,000000	0,003164
555,000000	0,003336
554,000000	0,003163
553,000000	0,002968
552,000000	0,003116
551,000000	0,003222
550,000000	0,003333
549,000000	0,003260
548,000000	0,003353
547,000000	0,003382
546,000000	0,003399
545,000000	0,003560
544,000000	0,003322
543,000000	0,003514
542,000000	0,003471
541,000000	0,003794
540,000000	0,003573
539,000000	0,003890
538,000000	0,003743
537,000000	0,003984
536,000000	0,004061
535,000000	0,004205
534,000000	0,004299
533,000000	0,004146
532,000000	0,004189
531,000000	0,004275
530,000000	0,004537
529,000000	0,004594
528,000000	0,004296
527,000000	0,004775
526,000000	0,004533
525,000000	0,004875
524,000000	0,005036
523,000000	0,004844
522,000000	0,005028
521,000000	0,005080
520,000000	0,005061
519,000000	0,005459
518,000000	0,005426
517,000000	0,005332
516,000000	0,005629
515,000000	0,005846
514,000000	0,005539
513,000000	0,006103
512,000000	0,005889
511,000000	0,006147
510,000000	0,006103
509,000000	0,006384
508,000000	0,006633
507,000000	0,006636
506,000000	0,006610
505,000000	0,006833
504,000000	0,007032
503,000000	0,007263
502,000000	0,007292
501,000000	0,007377
500,000000	0,007423
499,000000	0,007893
498,000000	0,007822
497,000000	0,008132
496,000000	0,008380
495,000000	0,008946
494,000000	0,008697
493,000000	0,009420
492,000000	0,009326
491,000000	0,009695
490,000000	0,009996
489,000000	0,010296
488,000000	0,010963
487,000000	0,011348
486,000000	0,011825
485,000000	0,012186
484,000000	0,012502
483,000000	0,012631
482,000000	0,013297
481,000000	0,013524
480,000000	0,014034
479,000000	0,014573
478,000000	0,014777
477,000000	0,015393
476,000000	0,015946
475,000000	0,016323
474,000000	0,017126
473,000000	0,017452
472,000000	0,018301
471,000000	0,018683
470,000000	0,019308
469,000000	0,019423
468,000000	0,020080
467,000000	0,020826
466,000000	0,021146
465,000000	0,022223
464,000000	0,022512
463,000000	0,023352
462,000000	0,023860
461,000000	0,024718
460,000000	0,025862
459,000000	0,026697
458,000000	0,028148
457,000000	0,028736
456,000000	0,029692
455,000000	0,030242
454,000000	0,031212
453,000000	0,032427
452,000000	0,033396
451,000000	0,034650
450,000000	0,035826
449,000000	0,036944
448,000000	0,038443
447,000000	0,039919
446,000000	0,040947
445,000000	0,042475
444,000000	0,043653
443,000000	0,045570
442,000000	0,046415
441,000000	0,047968
440,000000	0,050274
439,000000	0,051737
438,000000	0,053698
437,000000	0,055697
436,000000	0,057823
435,000000	0,060088
434,000000	0,062225
433,000000	0,064774
432,000000	0,067687
431,000000	0,071399
430,000000	0,075129
429,000000	0,079213
428,000000	0,083651
427,000000	0,088056
426,000000	0,093327
425,000000	0,098615
424,000000	0,104717
423,000000	0,111279
422,000000	0,119085
421,000000	0,126666
420,000000	0,136000
419,000000	0,146453
418,000000	0,158228
417,000000	0,170343
416,000000	0,182907
415,000000	0,197577
414,000000	0,214205
413,000000	0,231747
412,000000	0,251242
411,000000	0,274007
410,000000	0,298742
409,000000	0,326290
408,000000	0,357096
407,000000	0,389591
406,000000	0,426496
405,000000	0,468276
404,000000	0,515576
403,000000	0,567151
402,000000	0,626633
401,000000	0,691987
400,000000	0,761138
399,000000	0,839000
398,000000	0,910041
397,000000	0,979455
396,000000	1,045636
395,000000	1,106274
394,000000	1,159143
393,000000	1,200012
392,000000	1,226996
391,000000	1,245103
390,000000	1,254738
