PE UV       SUBTECH     SPECTRUM    ASCII       PEDS        4.00        
   -1
100% or 0 Absorbance Baseline.Correction.Raw.asc
20/10/03
15:16:36.00
20/10/03
15:16:36.00
Analyst

390,000000
1
Lambda 25
501s11081509
PerkinElmer UV WinLab 6.0.3.0730 / Lambda25 1.27

480
0
1
0
0
Both on
0
1
1
None
0
0
0
0
 
 
0
0
0
0
0
 
 
 
0
 
0
326
0
 
0
 
 
 
0
0
0
 
0
 
 
 
0
 
 
0
0
0
0
0
 
 
 
 
0
0


#HDR
-1
-1
#GR
nm
A
1.0
0.0
700,000000
-1,000000
311
8
-0,007321
-0,025216
#DATA
700,000000	-0,025158
699,000000	-0,025216
698,000000	-0,024867
697,000000	-0,024880
696,000000	-0,024711
695,000000	-0,024588
694,000000	-0,024334
693,000000	-0,024363
692,000000	-0,024276
691,000000	-0,024026
690,000000	-0,024223
689,000000	-0,023993
688,000000	-0,023915
687,000000	-0,023684
686,000000	-0,023503
685,000000	-0,023388
684,000000	-0,023154
683,000000	-0,022919
682,000000	-0,022771
681,000000	-0,022486
680,000000	-0,022597
679,000000	-0,022474
678,000000	-0,022593
677,000000	-0,022391
676,000000	-0,022329
675,000000	-0,022371
674,000000	-0,022234
673,000000	-0,022234
672,000000	-0,021855
671,000000	-0,022226
670,000000	-0,022173
669,000000	-0,021991
668,000000	-0,021793
667,000000	-0,021599
666,000000	-0,021723
665,000000	-0,021355
664,000000	-0,021458
663,000000	-0,021301
662,000000	-0,021189
661,000000	-0,020867
660,000000	-0,020838
659,000000	-0,020883
658,000000	-0,020875
657,000000	-0,020722
656,000000	-0,020829
655,000000	-0,020560
654,000000	-0,020469
653,000000	-0,020535
652,000000	-0,020254
651,000000	-0,020336
650,000000	-0,020432
649,000000	-0,020104
648,000000	-0,020171
647,000000	-0,020233
646,000000	-0,020013
645,000000	-0,019913
644,000000	-0,019976
643,000000	-0,019718
642,000000	-0,019835
641,000000	-0,019967
640,000000	-0,019967
639,000000	-0,019698
638,000000	-0,019818
637,000000	-0,019644
636,000000	-0,019602
635,000000	-0,019594
634,000000	-0,019561
633,000000	-0,019569
632,000000	-0,019748
631,000000	-0,019569
630,000000	-0,019457
629,000000	-0,019565
628,000000	-0,019577
627,000000	-0,019582
626,000000	-0,019474
625,000000	-0,019548
624,000000	-0,019486
623,000000	-0,019324
622,000000	-0,019474
621,000000	-0,019312
620,000000	-0,019523
619,000000	-0,019291
618,000000	-0,019154
617,000000	-0,019494
616,000000	-0,018992
615,000000	-0,019320
614,000000	-0,019424
613,000000	-0,019278
612,000000	-0,019145
611,000000	-0,019465
610,000000	-0,019241
609,000000	-0,019166
608,000000	-0,019557
607,000000	-0,019316
606,000000	-0,019465
605,000000	-0,019411
604,000000	-0,019511
603,000000	-0,019528
602,000000	-0,019503
601,000000	-0,019718
600,000000	-0,019432
599,000000	-0,019689
598,000000	-0,019648
597,000000	-0,019631
596,000000	-0,019602
595,000000	-0,019586
594,000000	-0,019573
593,000000	-0,019324
592,000000	-0,019303
591,000000	-0,018908
590,000000	-0,019029
589,000000	-0,018642
588,000000	-0,018309
587,000000	-0,017789
586,000000	-0,017501
585,000000	-0,017326
584,000000	-0,016946
583,000000	-0,016402
582,000000	-0,015883
581,000000	-0,015142
580,000000	-0,014659
579,000000	-0,014361
578,000000	-0,014020
577,000000	-0,013423
576,000000	-0,013229
575,000000	-0,012694
574,000000	-0,012538
573,000000	-0,012175
572,000000	-0,012014
571,000000	-0,011769
570,000000	-0,011211
569,000000	-0,011418
568,000000	-0,011266
567,000000	-0,011350
566,000000	-0,011253
565,000000	-0,011397
564,000000	-0,011029
563,000000	-0,011266
562,000000	-0,011355
561,000000	-0,011321
560,000000	-0,010809
559,000000	-0,011482
558,000000	-0,011202
557,000000	-0,011604
556,000000	-0,011346
555,000000	-0,011596
554,000000	-0,011465
553,000000	-0,011308
552,000000	-0,011418
551,000000	-0,011482
550,000000	-0,011456
549,000000	-0,011503
548,000000	-0,011625
547,000000	-0,011697
546,000000	-0,011782
545,000000	-0,011871
544,000000	-0,011790
543,000000	-0,011828
542,000000	-0,011799
541,000000	-0,011934
540,000000	-0,011858
539,000000	-0,012124
538,000000	-0,011875
537,000000	-0,012073
536,000000	-0,012040
535,000000	-0,012154
534,000000	-0,012133
533,000000	-0,012111
532,000000	-0,012133
531,000000	-0,012023
530,000000	-0,012225
529,000000	-0,012116
528,000000	-0,012082
527,000000	-0,012323
526,000000	-0,012200
525,000000	-0,012192
524,000000	-0,012285
523,000000	-0,011871
522,000000	-0,012268
521,000000	-0,012230
520,000000	-0,012352
519,000000	-0,012626
518,000000	-0,012555
517,000000	-0,012567
516,000000	-0,012702
515,000000	-0,012766
514,000000	-0,012698
513,000000	-0,013061
512,000000	-0,012740
511,000000	-0,012938
510,000000	-0,013048
509,000000	-0,013145
508,000000	-0,013322
507,000000	-0,013436
506,000000	-0,013162
505,000000	-0,013381
504,000000	-0,013301
503,000000	-0,013806
502,000000	-0,013583
501,000000	-0,013865
500,000000	-0,013697
499,000000	-0,013974
498,000000	-0,013915
497,000000	-0,014041
496,000000	-0,014079
495,000000	-0,014277
494,000000	-0,014285
493,000000	-0,014378
492,000000	-0,014395
491,000000	-0,014390
490,000000	-0,014571
489,000000	-0,014588
488,000000	-0,014957
487,000000	-0,015054
486,000000	-0,014945
485,000000	-0,015142
484,000000	-0,015087
483,000000	-0,014966
482,000000	-0,015221
481,000000	-0,015158
480,000000	-0,015184
479,000000	-0,015150
478,000000	-0,015133
477,000000	-0,015272
476,000000	-0,015372
475,000000	-0,014835
474,000000	-0,015146
473,000000	-0,015184
472,000000	-0,015272
471,000000	-0,014932
470,000000	-0,014772
469,000000	-0,014374
468,000000	-0,014336
467,000000	-0,014214
466,000000	-0,013907
465,000000	-0,013932
464,000000	-0,013414
463,000000	-0,013398
462,000000	-0,013056
461,000000	-0,012795
460,000000	-0,012791
459,000000	-0,012694
458,000000	-0,012504
457,000000	-0,012335
456,000000	-0,012225
455,000000	-0,011930
454,000000	-0,011642
453,000000	-0,011579
452,000000	-0,011558
451,000000	-0,011537
450,000000	-0,011414
449,000000	-0,011097
448,000000	-0,011113
447,000000	-0,011092
446,000000	-0,010792
445,000000	-0,010898
444,000000	-0,010283
443,000000	-0,010334
442,000000	-0,009574
441,000000	-0,009455
440,000000	-0,009502
439,000000	-0,008890
438,000000	-0,008885
437,000000	-0,008596
436,000000	-0,008519
435,000000	-0,008080
434,000000	-0,008038
433,000000	-0,007897
432,000000	-0,007880
431,000000	-0,008345
430,000000	-0,007897
429,000000	-0,007854
428,000000	-0,007790
427,000000	-0,007432
426,000000	-0,007522
425,000000	-0,007577
424,000000	-0,007650
423,000000	-0,007816
422,000000	-0,007321
421,000000	-0,007325
420,000000	-0,007462
419,000000	-0,007329
418,000000	-0,007684
417,000000	-0,007812
416,000000	-0,007586
415,000000	-0,007581
414,000000	-0,007765
413,000000	-0,007961
412,000000	-0,007863
411,000000	-0,007974
410,000000	-0,007918
409,000000	-0,008119
408,000000	-0,008345
407,000000	-0,008298
406,000000	-0,008400
405,000000	-0,008455
404,000000	-0,008532
403,000000	-0,008485
402,000000	-0,008596
401,000000	-0,008753
400,000000	-0,008792
399,000000	-0,008792
398,000000	-0,008962
397,000000	-0,009285
396,000000	-0,009187
395,000000	-0,009255
394,000000	-0,009115
393,000000	-0,009302
392,000000	-0,009612
391,000000	-0,009727
390,000000	-0,009697
