PE UV       SUBTECH     SPECTRUM    ASCII       PEDS        4.00        
   -1
14.Sample.Raw.asc
20/10/03
15:49:33.00
20/10/03
15:49:33.00
Analyst

390,000000
1
Lambda 25
501s11081509
PerkinElmer UV WinLab 6.0.3.0730 / Lambda25 1.27

480
2
1
0
0
Both on
1
1
1
None
0
0
0
0
 
 
0
0
0
0
0
 
 
 
0
 
0
326
0
 
0
 
 
 
0
0
0
 
0
 
 
 
0
 
 
0
0
0
0
0
 
 
 
 
0
0


#HDR
-1
-1
#GR
nm
A
1.0
0.0
700,000000
-1,000000
311
8
0,012223
-0,000299
#DATA
700,000000	0,000258
699,000000	0,000209
698,000000	0,000098
697,000000	-0,000057
696,000000	-0,000090
695,000000	0,000004
694,000000	-0,000070
693,000000	0,000090
692,000000	0,000197
691,000000	-0,000070
690,000000	0,000263
689,000000	-0,000012
688,000000	0,000144
687,000000	0,000029
686,000000	0,000058
685,000000	0,000016
684,000000	0,000037
683,000000	0,000004
682,000000	-0,000235
681,000000	0,000000
680,000000	-0,000157
679,000000	0,000120
678,000000	0,000239
677,000000	-0,000239
676,000000	0,000021
675,000000	0,000219
674,000000	0,000264
673,000000	0,000091
672,000000	-0,000211
671,000000	0,000454
670,000000	0,000495
669,000000	0,000401
668,000000	0,000289
667,000000	0,000165
666,000000	0,000310
665,000000	0,000261
664,000000	0,000463
663,000000	0,000273
662,000000	0,000194
661,000000	-0,000170
660,000000	-0,000087
659,000000	0,000248
658,000000	0,000290
657,000000	0,000108
656,000000	0,000369
655,000000	0,000004
654,000000	0,000207
653,000000	0,000033
652,000000	0,000182
651,000000	0,000315
650,000000	0,000153
649,000000	0,000153
648,000000	0,000062
647,000000	0,000303
646,000000	0,000266
645,000000	-0,000100
644,000000	0,000465
643,000000	-0,000299
642,000000	0,000307
641,000000	0,000278
640,000000	0,000606
639,000000	-0,000017
638,000000	0,000315
637,000000	0,000145
636,000000	0,000112
635,000000	0,000336
634,000000	0,000100
633,000000	0,000233
632,000000	0,000328
631,000000	0,000311
630,000000	0,000195
629,000000	0,000303
628,000000	0,000262
627,000000	0,000582
626,000000	0,000499
625,000000	0,000395
624,000000	0,000457
623,000000	0,000308
622,000000	0,000370
621,000000	0,000636
620,000000	-0,000004
619,000000	0,000482
618,000000	0,000175
617,000000	0,000494
616,000000	0,000295
615,000000	0,000424
614,000000	0,000661
613,000000	0,000216
612,000000	0,000349
611,000000	0,000382
610,000000	0,000491
609,000000	0,000004
608,000000	0,000619
607,000000	0,000370
606,000000	0,000449
605,000000	0,000611
604,000000	0,000403
603,000000	0,000557
602,000000	0,000494
601,000000	0,000465
600,000000	0,000316
599,000000	0,000399
598,000000	0,000660
597,000000	0,000465
596,000000	0,000648
595,000000	0,000536
594,000000	0,000735
593,000000	0,000125
592,000000	0,000445
591,000000	0,000175
590,000000	0,000599
589,000000	0,000591
588,000000	0,000425
587,000000	0,000563
586,000000	0,000422
585,000000	0,000622
584,000000	0,000815
583,000000	0,000586
582,000000	0,000536
581,000000	0,000378
580,000000	0,000740
579,000000	0,000584
578,000000	0,000825
577,000000	0,000522
576,000000	0,000615
575,000000	0,000502
574,000000	0,000473
573,000000	0,000494
572,000000	0,000761
571,000000	0,000609
570,000000	0,000030
569,000000	0,000474
568,000000	0,000495
567,000000	0,000868
566,000000	0,000601
565,000000	0,000741
564,000000	0,000551
563,000000	0,001055
562,000000	0,001004
561,000000	0,000949
560,000000	0,000640
559,000000	0,000618
558,000000	0,000699
557,000000	0,001101
556,000000	0,000711
555,000000	0,001046
554,000000	0,000906
553,000000	0,000356
552,000000	0,000703
551,000000	0,000910
550,000000	0,000872
549,000000	0,000868
548,000000	0,000889
547,000000	0,000961
546,000000	0,001007
545,000000	0,000842
544,000000	0,000952
543,000000	0,000812
542,000000	0,000783
541,000000	0,000905
540,000000	0,000948
539,000000	0,001396
538,000000	0,001151
537,000000	0,001146
536,000000	0,000964
535,000000	0,001345
534,000000	0,001239
533,000000	0,001078
532,000000	0,001506
531,000000	0,001163
530,000000	0,001514
529,000000	0,001248
528,000000	0,001261
527,000000	0,001340
526,000000	0,001319
525,000000	0,001408
524,000000	0,001400
523,000000	0,001231
522,000000	0,001616
521,000000	0,001417
520,000000	0,001370
519,000000	0,001860
518,000000	0,001572
517,000000	0,001746
516,000000	0,001970
515,000000	0,001927
514,000000	0,001669
513,000000	0,002311
512,000000	0,001623
511,000000	0,002049
510,000000	0,002032
509,000000	0,002082
508,000000	0,002179
507,000000	0,002551
506,000000	0,002027
505,000000	0,002373
504,000000	0,002124
503,000000	0,002413
502,000000	0,002508
501,000000	0,002772
500,000000	0,002426
499,000000	0,002700
498,000000	0,002531
497,000000	0,002636
496,000000	0,002767
495,000000	0,003049
494,000000	0,003172
493,000000	0,003074
492,000000	0,003002
491,000000	0,002896
490,000000	0,003043
489,000000	0,003356
488,000000	0,003670
487,000000	0,003449
486,000000	0,003560
485,000000	0,003681
484,000000	0,003618
483,000000	0,003387
482,000000	0,003824
481,000000	0,003592
480,000000	0,003918
479,000000	0,004007
478,000000	0,003935
477,000000	0,004518
476,000000	0,004132
475,000000	0,004133
474,000000	0,004375
473,000000	0,004617
472,000000	0,004789
471,000000	0,004683
470,000000	0,004757
469,000000	0,004443
468,000000	0,004949
467,000000	0,005120
466,000000	0,005077
465,000000	0,005132
464,000000	0,005309
463,000000	0,005513
462,000000	0,005364
461,000000	0,005538
460,000000	0,005551
459,000000	0,006014
458,000000	0,005674
457,000000	0,005972
456,000000	0,006303
455,000000	0,005909
454,000000	0,005956
453,000000	0,005802
452,000000	0,006356
451,000000	0,006373
450,000000	0,006598
449,000000	0,006457
448,000000	0,006307
447,000000	0,006844
446,000000	0,006900
445,000000	0,007502
444,000000	0,006947
443,000000	0,007369
442,000000	0,007024
441,000000	0,007220
440,000000	0,007470
439,000000	0,007221
438,000000	0,007927
437,000000	0,007893
436,000000	0,008050
435,000000	0,007651
434,000000	0,007560
433,000000	0,007615
432,000000	0,007837
431,000000	0,008358
430,000000	0,008153
429,000000	0,008398
428,000000	0,008351
427,000000	0,008397
426,000000	0,008587
425,000000	0,008586
424,000000	0,008306
423,000000	0,009147
422,000000	0,008439
421,000000	0,008861
420,000000	0,009115
419,000000	0,008948
418,000000	0,009163
417,000000	0,009457
416,000000	0,009379
415,000000	0,009440
414,000000	0,009706
413,000000	0,009933
412,000000	0,009643
411,000000	0,009671
410,000000	0,009790
409,000000	0,009711
408,000000	0,010356
407,000000	0,010086
406,000000	0,010237
405,000000	0,010336
404,000000	0,010360
403,000000	0,010182
402,000000	0,010825
401,000000	0,010629
400,000000	0,010886
399,000000	0,010929
398,000000	0,011134
397,000000	0,011322
396,000000	0,011351
395,000000	0,011493
394,000000	0,011344
393,000000	0,011527
392,000000	0,011741
391,000000	0,012223
390,000000	0,011765
