PE UV       SUBTECH     SPECTRUM    ASCII       PEDS        4.00        
   -1
19.Sample.Raw.asc
20/10/03
15:51:38.00
20/10/03
15:51:38.00
Analyst

390,000000
1
Lambda 25
501s11081509
PerkinElmer UV WinLab 6.0.3.0730 / Lambda25 1.27

480
2
1
0
0
Both on
1
1
1
None
0
0
0
0
 
 
0
0
0
0
0
 
 
 
0
 
0
326
0
 
0
 
 
 
0
0
0
 
0
 
 
 
0
 
 
0
0
0
0
0
 
 
 
 
0
0


#HDR
-1
-1
#GR
nm
A
1.0
0.0
700,000000
-1,000000
311
8
0,147739
-0,000148
#DATA
700,000000	0,000262
699,000000	0,000414
698,000000	0,000201
697,000000	0,000250
696,000000	0,000267
695,000000	0,000316
694,000000	0,000140
693,000000	0,000259
692,000000	0,000209
691,000000	0,000243
690,000000	0,000288
689,000000	0,000358
688,000000	0,000415
687,000000	0,000407
686,000000	0,000366
685,000000	0,000354
684,000000	0,000330
683,000000	0,000470
682,000000	-0,000148
681,000000	0,000169
680,000000	0,000186
679,000000	0,000305
678,000000	0,000640
677,000000	0,000016
676,000000	0,000243
675,000000	0,000322
674,000000	0,000388
673,000000	0,000413
672,000000	0,000128
671,000000	0,000615
670,000000	0,000777
669,000000	0,000459
668,000000	0,000347
667,000000	0,000430
666,000000	0,000624
665,000000	0,000426
664,000000	0,000426
663,000000	0,000443
662,000000	0,000671
661,000000	0,000141
660,000000	0,000497
659,000000	0,000567
658,000000	0,000406
657,000000	0,000385
656,000000	0,000505
655,000000	0,000543
654,000000	0,000278
653,000000	0,000502
652,000000	0,000340
651,000000	0,000489
650,000000	0,000572
649,000000	0,000220
648,000000	0,000465
647,000000	0,000585
646,000000	0,000552
645,000000	0,000369
644,000000	0,000743
643,000000	0,000361
642,000000	0,000448
641,000000	0,000324
640,000000	0,000697
639,000000	0,000457
638,000000	0,000565
637,000000	0,000739
636,000000	0,000407
635,000000	0,000611
634,000000	0,000507
633,000000	0,000632
632,000000	0,000789
631,000000	0,000727
630,000000	0,000565
629,000000	0,000794
628,000000	0,000831
627,000000	0,000997
626,000000	0,000948
625,000000	0,000860
624,000000	0,000777
623,000000	0,000786
622,000000	0,000715
621,000000	0,000690
620,000000	0,000777
619,000000	0,000719
618,000000	0,000740
617,000000	0,001010
616,000000	0,000807
615,000000	0,000848
614,000000	0,000940
613,000000	0,000861
612,000000	0,000657
611,000000	0,001052
610,000000	0,000807
609,000000	0,000940
608,000000	0,001072
607,000000	0,001031
606,000000	0,001006
605,000000	0,000732
604,000000	0,001143
603,000000	0,000869
602,000000	0,000906
601,000000	0,000968
600,000000	0,000927
599,000000	0,001205
598,000000	0,000989
597,000000	0,001106
596,000000	0,001151
595,000000	0,001081
594,000000	0,001022
593,000000	0,001036
592,000000	0,001111
591,000000	0,001037
590,000000	0,001165
589,000000	0,001250
588,000000	0,001314
587,000000	0,000910
586,000000	0,001149
585,000000	0,001383
584,000000	0,001565
583,000000	0,001449
582,000000	0,001485
581,000000	0,001437
580,000000	0,001177
579,000000	0,001608
578,000000	0,001622
577,000000	0,001641
576,000000	0,000814
575,000000	0,002042
574,000000	0,001170
573,000000	0,001061
572,000000	0,001350
571,000000	0,001851
570,000000	0,000911
569,000000	0,001551
568,000000	0,001386
567,000000	0,001594
566,000000	0,001535
565,000000	0,002010
564,000000	0,001387
563,000000	0,001828
562,000000	0,001776
561,000000	0,002019
560,000000	0,001434
559,000000	0,001814
558,000000	0,001790
557,000000	0,002166
556,000000	0,001972
555,000000	0,001949
554,000000	0,001976
553,000000	0,001709
552,000000	0,001865
551,000000	0,002150
550,000000	0,002307
549,000000	0,002052
548,000000	0,002039
547,000000	0,002340
546,000000	0,002293
545,000000	0,002479
544,000000	0,002242
543,000000	0,002174
542,000000	0,002331
541,000000	0,002466
540,000000	0,002360
539,000000	0,002737
538,000000	0,002747
537,000000	0,002695
536,000000	0,002733
535,000000	0,002771
534,000000	0,002767
533,000000	0,003056
532,000000	0,002737
531,000000	0,003039
530,000000	0,003098
529,000000	0,003035
528,000000	0,003026
527,000000	0,003361
526,000000	0,003247
525,000000	0,003166
524,000000	0,003284
523,000000	0,003202
522,000000	0,003174
521,000000	0,003429
520,000000	0,003594
519,000000	0,003950
518,000000	0,003750
517,000000	0,003588
516,000000	0,003983
515,000000	0,003638
514,000000	0,003762
513,000000	0,004154
512,000000	0,004183
511,000000	0,003989
510,000000	0,004346
509,000000	0,004191
508,000000	0,004424
507,000000	0,004635
506,000000	0,004425
505,000000	0,004730
504,000000	0,004509
503,000000	0,005257
502,000000	0,004817
501,000000	0,005162
500,000000	0,004803
499,000000	0,005331
498,000000	0,005247
497,000000	0,005258
496,000000	0,005296
495,000000	0,005583
494,000000	0,005651
493,000000	0,005893
492,000000	0,005658
491,000000	0,006046
490,000000	0,006090
489,000000	0,006264
488,000000	0,006378
487,000000	0,006577
486,000000	0,006366
485,000000	0,006904
484,000000	0,006845
483,000000	0,007034
482,000000	0,007299
481,000000	0,007261
480,000000	0,007444
479,000000	0,007347
478,000000	0,007667
477,000000	0,007720
476,000000	0,008068
475,000000	0,007707
474,000000	0,008376
473,000000	0,008619
472,000000	0,008883
471,000000	0,008718
470,000000	0,009223
469,000000	0,008841
468,000000	0,009159
467,000000	0,009652
466,000000	0,009637
465,000000	0,010106
464,000000	0,009846
463,000000	0,010472
462,000000	0,010195
461,000000	0,010599
460,000000	0,010620
459,000000	0,011207
458,000000	0,011593
457,000000	0,011632
456,000000	0,012013
455,000000	0,011938
454,000000	0,011794
453,000000	0,012575
452,000000	0,012501
451,000000	0,012815
450,000000	0,013395
449,000000	0,013112
448,000000	0,013858
447,000000	0,014633
446,000000	0,014661
445,000000	0,015166
444,000000	0,015355
443,000000	0,015990
442,000000	0,015415
441,000000	0,015935
440,000000	0,016935
439,000000	0,016831
438,000000	0,017633
437,000000	0,017458
436,000000	0,018585
435,000000	0,018359
434,000000	0,018855
433,000000	0,019182
432,000000	0,019856
431,000000	0,020754
430,000000	0,021103
429,000000	0,021692
428,000000	0,022274
427,000000	0,022567
426,000000	0,023616
425,000000	0,023770
424,000000	0,024687
423,000000	0,025545
422,000000	0,025674
421,000000	0,027026
420,000000	0,027513
419,000000	0,028620
418,000000	0,029887
417,000000	0,031072
416,000000	0,031942
415,000000	0,032991
414,000000	0,034517
413,000000	0,035883
412,000000	0,037200
411,000000	0,038833
410,000000	0,040572
409,000000	0,042292
408,000000	0,044127
407,000000	0,046066
406,000000	0,047782
405,000000	0,049992
404,000000	0,051855
403,000000	0,053857
402,000000	0,056065
401,000000	0,058393
400,000000	0,061010
399,000000	0,063969
398,000000	0,067341
397,000000	0,071697
396,000000	0,076424
395,000000	0,082856
394,000000	0,090147
393,000000	0,099891
392,000000	0,113014
391,000000	0,128845
390,000000	0,147739
