PE UV       SUBTECH     SPECTRUM    ASCII       PEDS        4.00        
   -1
2.Sample.Raw.asc
20/10/03
15:36:01.00
20/10/03
15:36:01.00
Analyst

390,000000
1
Lambda 25
501s11081509
PerkinElmer UV WinLab 6.0.3.0730 / Lambda25 1.27

480
2
1
0
0
Both on
1
1
1
None
0
0
0
0
 
 
0
0
0
0
0
 
 
 
0
 
0
326
0
 
0
 
 
 
0
0
0
 
0
 
 
 
0
 
 
0
0
0
0
0
 
 
 
 
0
0


#HDR
-1
-1
#GR
nm
A
1.0
0.0
700,000000
-1,000000
311
8
0,049322
0,012659
#DATA
700,000000	0,012659
699,000000	0,012965
698,000000	0,012760
697,000000	0,012924
696,000000	0,012900
695,000000	0,012933
694,000000	0,012954
693,000000	0,012936
692,000000	0,013006
691,000000	0,012785
690,000000	0,013076
689,000000	0,012790
688,000000	0,013068
687,000000	0,013079
686,000000	0,013021
685,000000	0,013029
684,000000	0,012909
683,000000	0,012890
682,000000	0,013218
681,000000	0,012734
680,000000	0,013274
679,000000	0,013002
678,000000	0,013176
677,000000	0,012881
676,000000	0,013185
675,000000	0,013353
674,000000	0,013311
673,000000	0,013451
672,000000	0,013131
671,000000	0,013928
670,000000	0,013692
669,000000	0,013646
668,000000	0,013423
667,000000	0,013233
666,000000	0,013787
665,000000	0,013296
664,000000	0,013796
663,000000	0,013485
662,000000	0,013476
661,000000	0,013409
660,000000	0,013478
659,000000	0,013695
658,000000	0,013515
657,000000	0,013456
656,000000	0,013628
655,000000	0,013619
654,000000	0,013605
653,000000	0,013723
652,000000	0,013514
651,000000	0,013699
650,000000	0,013854
649,000000	0,013578
648,000000	0,013700
647,000000	0,013917
646,000000	0,013795
645,000000	0,013721
644,000000	0,013985
643,000000	0,013663
642,000000	0,013810
641,000000	0,013938
640,000000	0,014272
639,000000	0,013883
638,000000	0,013891
637,000000	0,013760
636,000000	0,014040
635,000000	0,013894
634,000000	0,014114
633,000000	0,013882
632,000000	0,014130
631,000000	0,014183
630,000000	0,013787
629,000000	0,014200
628,000000	0,014157
627,000000	0,014285
626,000000	0,014018
625,000000	0,014136
624,000000	0,014181
623,000000	0,014049
622,000000	0,014263
621,000000	0,014161
620,000000	0,014480
619,000000	0,014158
618,000000	0,014136
617,000000	0,014477
616,000000	0,014210
615,000000	0,014457
614,000000	0,014299
613,000000	0,014334
612,000000	0,014330
611,000000	0,014529
610,000000	0,014516
609,000000	0,014484
608,000000	0,014788
607,000000	0,014483
606,000000	0,014590
605,000000	0,014531
604,000000	0,014545
603,000000	0,014514
602,000000	0,014348
601,000000	0,014950
600,000000	0,014552
599,000000	0,014702
598,000000	0,014523
597,000000	0,014691
596,000000	0,014615
595,000000	0,014710
594,000000	0,014642
593,000000	0,014513
592,000000	0,014883
591,000000	0,014316
590,000000	0,014940
589,000000	0,014583
588,000000	0,014599
587,000000	0,014500
586,000000	0,014812
585,000000	0,014663
584,000000	0,014723
583,000000	0,014984
582,000000	0,014838
581,000000	0,014695
580,000000	0,014746
579,000000	0,014830
578,000000	0,014790
577,000000	0,014767
576,000000	0,015031
575,000000	0,014461
574,000000	0,015068
573,000000	0,014718
572,000000	0,014890
571,000000	0,014951
570,000000	0,014450
569,000000	0,015069
568,000000	0,014916
567,000000	0,015237
566,000000	0,015407
565,000000	0,015459
564,000000	0,015196
563,000000	0,015240
562,000000	0,015307
561,000000	0,015352
560,000000	0,014976
559,000000	0,015347
558,000000	0,015098
557,000000	0,015596
556,000000	0,015351
555,000000	0,015491
554,000000	0,015448
553,000000	0,015471
552,000000	0,015590
551,000000	0,015430
550,000000	0,015483
549,000000	0,015539
548,000000	0,015622
547,000000	0,015413
546,000000	0,015537
545,000000	0,015600
544,000000	0,015489
543,000000	0,015588
542,000000	0,015594
541,000000	0,015887
540,000000	0,015705
539,000000	0,015998
538,000000	0,015924
537,000000	0,015846
536,000000	0,015979
535,000000	0,015835
534,000000	0,015993
533,000000	0,016182
532,000000	0,016072
531,000000	0,016085
530,000000	0,016156
529,000000	0,016121
528,000000	0,016061
527,000000	0,016301
526,000000	0,015982
525,000000	0,015969
524,000000	0,016307
523,000000	0,015959
522,000000	0,016422
521,000000	0,016248
520,000000	0,016327
519,000000	0,016544
518,000000	0,016380
517,000000	0,016310
516,000000	0,016541
515,000000	0,016832
514,000000	0,016230
513,000000	0,016820
512,000000	0,016496
511,000000	0,016374
510,000000	0,016484
509,000000	0,016581
508,000000	0,016731
507,000000	0,017003
506,000000	0,016663
505,000000	0,016852
504,000000	0,016623
503,000000	0,017049
502,000000	0,016826
501,000000	0,017235
500,000000	0,016822
499,000000	0,017121
498,000000	0,017115
497,000000	0,017184
496,000000	0,016994
495,000000	0,017314
494,000000	0,017292
493,000000	0,017127
492,000000	0,017052
491,000000	0,017218
490,000000	0,017482
489,000000	0,017398
488,000000	0,017610
487,000000	0,017650
486,000000	0,017449
485,000000	0,017956
484,000000	0,017845
483,000000	0,017658
482,000000	0,017800
481,000000	0,017715
480,000000	0,018090
479,000000	0,018100
478,000000	0,018145
477,000000	0,018108
476,000000	0,018069
475,000000	0,017794
474,000000	0,018245
473,000000	0,018423
472,000000	0,018602
471,000000	0,018622
470,000000	0,018607
469,000000	0,018418
468,000000	0,018626
467,000000	0,018838
466,000000	0,018645
465,000000	0,019096
464,000000	0,018754
463,000000	0,019058
462,000000	0,018973
461,000000	0,018984
460,000000	0,019244
459,000000	0,019633
458,000000	0,019434
457,000000	0,019905
456,000000	0,019804
455,000000	0,019602
454,000000	0,019553
453,000000	0,019861
452,000000	0,019942
451,000000	0,020213
450,000000	0,020020
449,000000	0,019764
448,000000	0,020242
447,000000	0,020669
446,000000	0,020977
445,000000	0,021070
444,000000	0,020860
443,000000	0,021565
442,000000	0,021207
441,000000	0,021347
440,000000	0,021652
439,000000	0,021550
438,000000	0,021756
437,000000	0,022156
436,000000	0,022464
435,000000	0,022340
434,000000	0,022692
433,000000	0,022583
432,000000	0,023087
431,000000	0,023849
430,000000	0,023554
429,000000	0,023620
428,000000	0,024263
427,000000	0,024135
426,000000	0,024563
425,000000	0,024628
424,000000	0,025139
423,000000	0,025088
422,000000	0,025172
421,000000	0,025756
420,000000	0,026105
419,000000	0,026349
418,000000	0,026858
417,000000	0,027190
416,000000	0,027178
415,000000	0,027446
414,000000	0,028221
413,000000	0,028859
412,000000	0,029062
411,000000	0,029195
410,000000	0,029569
409,000000	0,030176
408,000000	0,030895
407,000000	0,031384
406,000000	0,032298
405,000000	0,032739
404,000000	0,033261
403,000000	0,034139
402,000000	0,034808
401,000000	0,035773
400,000000	0,036519
399,000000	0,037729
398,000000	0,038699
397,000000	0,039883
396,000000	0,040971
395,000000	0,041946
394,000000	0,043570
393,000000	0,044779
392,000000	0,045990
391,000000	0,047789
390,000000	0,049322
