PE UV       SUBTECH     SPECTRUM    ASCII       PEDS        4.00        
   -1
20.Sample.Raw.asc
20/10/03
15:53:37.00
20/10/03
15:53:37.00
Analyst

390,000000
1
Lambda 25
501s11081509
PerkinElmer UV WinLab 6.0.3.0730 / Lambda25 1.27

480
2
1
0
0
Both on
1
1
1
None
0
0
0
0
 
 
0
0
0
0
0
 
 
 
0
 
0
326
0
 
0
 
 
 
0
0
0
 
0
 
 
 
0
 
 
0
0
0
0
0
 
 
 
 
0
0


#HDR
-1
-1
#GR
nm
A
1.0
0.0
700,000000
-1,000000
311
8
0,251293
0,003442
#DATA
700,000000	0,003494
699,000000	0,003844
698,000000	0,003591
697,000000	0,003690
696,000000	0,003613
695,000000	0,003684
694,000000	0,003442
693,000000	0,003798
692,000000	0,003729
691,000000	0,003565
690,000000	0,003712
689,000000	0,003806
688,000000	0,003918
687,000000	0,003842
686,000000	0,003847
685,000000	0,003691
684,000000	0,003771
683,000000	0,003690
682,000000	0,003717
681,000000	0,003553
680,000000	0,003772
679,000000	0,003727
678,000000	0,003872
677,000000	0,003578
676,000000	0,003854
675,000000	0,004199
674,000000	0,004067
673,000000	0,004042
672,000000	0,003741
671,000000	0,004283
670,000000	0,004501
669,000000	0,004386
668,000000	0,004184
667,000000	0,004286
666,000000	0,004422
665,000000	0,004146
664,000000	0,004362
663,000000	0,004431
662,000000	0,004457
661,000000	0,004121
660,000000	0,004364
659,000000	0,004326
658,000000	0,004489
657,000000	0,004390
656,000000	0,004640
655,000000	0,004329
654,000000	0,004360
653,000000	0,004681
652,000000	0,004353
651,000000	0,004428
650,000000	0,004611
649,000000	0,004292
648,000000	0,004585
647,000000	0,004860
646,000000	0,004641
645,000000	0,004503
644,000000	0,004880
643,000000	0,004577
642,000000	0,004899
641,000000	0,005149
640,000000	0,004884
639,000000	0,004644
638,000000	0,005008
637,000000	0,005010
636,000000	0,004641
635,000000	0,004767
634,000000	0,004658
633,000000	0,004885
632,000000	0,005143
631,000000	0,004780
630,000000	0,004957
629,000000	0,004939
628,000000	0,005250
627,000000	0,005401
626,000000	0,005348
625,000000	0,005339
624,000000	0,005167
623,000000	0,005295
622,000000	0,005054
621,000000	0,005127
620,000000	0,005347
619,000000	0,005304
618,000000	0,005247
617,000000	0,005516
616,000000	0,005333
615,000000	0,005573
614,000000	0,005656
613,000000	0,005418
612,000000	0,005318
611,000000	0,005701
610,000000	0,005296
609,000000	0,005327
608,000000	0,005713
607,000000	0,005733
606,000000	0,005714
605,000000	0,005639
604,000000	0,005781
603,000000	0,005680
602,000000	0,005827
601,000000	0,006089
600,000000	0,005647
599,000000	0,005989
598,000000	0,006099
597,000000	0,005952
596,000000	0,006217
595,000000	0,006133
594,000000	0,006239
593,000000	0,006183
592,000000	0,005901
591,000000	0,006126
590,000000	0,006263
589,000000	0,006151
588,000000	0,006426
587,000000	0,006117
586,000000	0,006193
585,000000	0,006508
584,000000	0,006663
583,000000	0,006404
582,000000	0,006577
581,000000	0,006567
580,000000	0,006408
579,000000	0,006545
578,000000	0,006883
577,000000	0,006833
576,000000	0,006874
575,000000	0,006643
574,000000	0,006881
573,000000	0,006741
572,000000	0,007078
571,000000	0,006855
570,000000	0,006365
569,000000	0,006942
568,000000	0,006639
567,000000	0,007068
566,000000	0,006906
565,000000	0,007093
564,000000	0,006961
563,000000	0,007061
562,000000	0,007266
561,000000	0,007473
560,000000	0,006922
559,000000	0,007436
558,000000	0,007143
557,000000	0,007610
556,000000	0,007343
555,000000	0,007743
554,000000	0,007586
553,000000	0,007103
552,000000	0,007467
551,000000	0,007354
550,000000	0,007694
549,000000	0,007560
548,000000	0,007859
547,000000	0,007690
546,000000	0,007843
545,000000	0,007756
544,000000	0,007516
543,000000	0,007967
542,000000	0,007624
541,000000	0,008112
540,000000	0,007833
539,000000	0,008534
538,000000	0,008104
537,000000	0,008161
536,000000	0,007946
535,000000	0,008232
534,000000	0,008030
533,000000	0,008117
532,000000	0,008366
531,000000	0,008424
530,000000	0,008550
529,000000	0,008384
528,000000	0,008303
527,000000	0,008625
526,000000	0,008541
525,000000	0,008455
524,000000	0,008484
523,000000	0,008324
522,000000	0,008570
521,000000	0,008799
520,000000	0,008732
519,000000	0,008860
518,000000	0,008892
517,000000	0,008900
516,000000	0,009246
515,000000	0,008922
514,000000	0,008880
513,000000	0,009393
512,000000	0,009021
511,000000	0,009198
510,000000	0,009290
509,000000	0,009387
508,000000	0,009426
507,000000	0,009553
506,000000	0,009137
505,000000	0,009658
504,000000	0,009298
503,000000	0,009790
502,000000	0,009502
501,000000	0,009840
500,000000	0,009504
499,000000	0,009902
498,000000	0,009882
497,000000	0,009888
496,000000	0,009758
495,000000	0,010132
494,000000	0,010153
493,000000	0,010018
492,000000	0,010133
491,000000	0,010129
490,000000	0,010181
489,000000	0,010198
488,000000	0,010442
487,000000	0,010698
486,000000	0,010554
485,000000	0,010476
484,000000	0,010538
483,000000	0,010550
482,000000	0,010904
481,000000	0,010592
480,000000	0,010738
479,000000	0,010837
478,000000	0,010786
477,000000	0,011157
476,000000	0,011404
475,000000	0,010862
474,000000	0,011315
473,000000	0,011185
472,000000	0,011781
471,000000	0,011368
470,000000	0,011527
469,000000	0,011197
468,000000	0,011621
467,000000	0,011681
466,000000	0,011620
465,000000	0,012034
464,000000	0,011633
463,000000	0,011599
462,000000	0,011916
461,000000	0,011637
460,000000	0,012352
459,000000	0,012464
458,000000	0,012587
457,000000	0,012422
456,000000	0,012521
455,000000	0,012804
454,000000	0,012242
453,000000	0,012370
452,000000	0,012627
451,000000	0,013020
450,000000	0,012972
449,000000	0,012850
448,000000	0,013186
447,000000	0,013763
446,000000	0,013287
445,000000	0,013612
444,000000	0,013404
443,000000	0,014374
442,000000	0,013619
441,000000	0,013623
440,000000	0,014525
439,000000	0,014036
438,000000	0,014625
437,000000	0,014402
436,000000	0,014827
435,000000	0,014719
434,000000	0,014769
433,000000	0,014928
432,000000	0,015287
431,000000	0,015884
430,000000	0,016241
429,000000	0,016721
428,000000	0,017025
427,000000	0,017066
426,000000	0,017147
425,000000	0,017874
424,000000	0,018578
423,000000	0,019320
422,000000	0,019521
421,000000	0,020957
420,000000	0,022507
419,000000	0,023365
418,000000	0,025290
417,000000	0,027113
416,000000	0,028762
415,000000	0,030640
414,000000	0,033424
413,000000	0,036402
412,000000	0,039282
411,000000	0,043337
410,000000	0,047281
409,000000	0,051677
408,000000	0,056818
407,000000	0,062047
406,000000	0,067998
405,000000	0,074002
404,000000	0,080977
403,000000	0,088179
402,000000	0,096475
401,000000	0,105251
400,000000	0,115024
399,000000	0,125715
398,000000	0,136165
397,000000	0,147011
396,000000	0,159215
395,000000	0,171749
394,000000	0,185491
393,000000	0,200288
392,000000	0,217095
391,000000	0,234124
390,000000	0,251293
