PE UV       SUBTECH     SPECTRUM    ASCII       PEDS        4.00        
   -1
3.Sample.Raw.asc
20/10/03
15:38:15.00
20/10/03
15:38:15.00
Analyst

390,000000
1
Lambda 25
501s11081509
PerkinElmer UV WinLab 6.0.3.0730 / Lambda25 1.27

480
2
1
0
0
Both on
1
1
1
None
0
0
0
0
 
 
0
0
0
0
0
 
 
 
0
 
0
326
0
 
0
 
 
 
0
0
0
 
0
 
 
 
0
 
 
0
0
0
0
0
 
 
 
 
0
0


#HDR
-1
-1
#GR
nm
A
1.0
0.0
700,000000
-1,000000
311
8
0,343938
0,006666
#DATA
700,000000	0,006666
699,000000	0,006890
698,000000	0,006708
697,000000	0,007008
696,000000	0,006769
695,000000	0,006912
694,000000	0,006904
693,000000	0,007179
692,000000	0,007331
691,000000	0,007176
690,000000	0,007666
689,000000	0,007381
688,000000	0,007797
687,000000	0,007696
686,000000	0,007737
685,000000	0,007748
684,000000	0,007890
683,000000	0,007815
682,000000	0,007864
681,000000	0,007873
680,000000	0,008178
679,000000	0,008100
678,000000	0,008367
677,000000	0,008194
676,000000	0,008469
675,000000	0,008847
674,000000	0,009077
673,000000	0,009123
672,000000	0,008870
671,000000	0,009461
670,000000	0,009525
669,000000	0,009601
668,000000	0,009398
667,000000	0,009770
666,000000	0,009708
665,000000	0,009607
664,000000	0,009858
663,000000	0,009857
662,000000	0,010262
661,000000	0,009867
660,000000	0,010054
659,000000	0,010147
658,000000	0,010410
657,000000	0,010706
656,000000	0,010792
655,000000	0,010740
654,000000	0,010874
653,000000	0,011072
652,000000	0,010939
651,000000	0,011294
650,000000	0,011589
649,000000	0,011457
648,000000	0,011685
647,000000	0,011833
646,000000	0,012129
645,000000	0,011961
644,000000	0,012207
643,000000	0,012094
642,000000	0,012437
641,000000	0,012642
640,000000	0,012758
639,000000	0,012932
638,000000	0,013279
637,000000	0,013212
636,000000	0,013140
635,000000	0,013715
634,000000	0,013844
633,000000	0,013784
632,000000	0,014211
631,000000	0,014419
630,000000	0,014203
629,000000	0,014762
628,000000	0,015024
627,000000	0,015200
626,000000	0,015234
625,000000	0,015408
624,000000	0,015384
623,000000	0,015545
622,000000	0,016039
621,000000	0,015808
620,000000	0,016140
619,000000	0,016382
618,000000	0,016564
617,000000	0,016793
616,000000	0,016938
615,000000	0,017063
614,000000	0,017482
613,000000	0,017579
612,000000	0,017589
611,000000	0,018199
610,000000	0,018230
609,000000	0,018546
608,000000	0,018971
607,000000	0,018903
606,000000	0,019231
605,000000	0,019368
604,000000	0,019850
603,000000	0,020058
602,000000	0,020137
601,000000	0,020645
600,000000	0,020576
599,000000	0,020807
598,000000	0,021136
597,000000	0,021599
596,000000	0,021565
595,000000	0,021946
594,000000	0,022069
593,000000	0,022405
592,000000	0,022770
591,000000	0,022857
590,000000	0,023346
589,000000	0,023525
588,000000	0,023829
587,000000	0,023920
586,000000	0,024391
585,000000	0,024931
584,000000	0,025409
583,000000	0,025487
582,000000	0,025771
581,000000	0,025865
580,000000	0,026096
579,000000	0,026730
578,000000	0,027047
577,000000	0,027301
576,000000	0,027533
575,000000	0,027820
574,000000	0,028339
573,000000	0,028332
572,000000	0,029119
571,000000	0,029014
570,000000	0,029397
569,000000	0,030039
568,000000	0,030431
567,000000	0,030793
566,000000	0,031182
565,000000	0,031903
564,000000	0,031731
563,000000	0,032565
562,000000	0,032763
561,000000	0,033264
560,000000	0,033826
559,000000	0,034834
558,000000	0,034999
557,000000	0,035525
556,000000	0,035850
555,000000	0,036702
554,000000	0,036686
553,000000	0,037101
552,000000	0,037695
551,000000	0,038428
550,000000	0,038694
549,000000	0,039031
548,000000	0,039830
547,000000	0,040398
546,000000	0,040887
545,000000	0,041287
544,000000	0,041620
543,000000	0,042291
542,000000	0,043078
541,000000	0,043549
540,000000	0,043968
539,000000	0,044885
538,000000	0,044931
537,000000	0,045805
536,000000	0,046311
535,000000	0,047201
534,000000	0,047736
533,000000	0,048182
532,000000	0,048916
531,000000	0,049492
530,000000	0,050278
529,000000	0,050732
528,000000	0,051311
527,000000	0,052223
526,000000	0,052591
525,000000	0,053537
524,000000	0,054203
523,000000	0,054747
522,000000	0,055360
521,000000	0,056378
520,000000	0,057093
519,000000	0,058003
518,000000	0,058747
517,000000	0,059446
516,000000	0,060220
515,000000	0,061054
514,000000	0,061754
513,000000	0,062822
512,000000	0,063209
511,000000	0,064266
510,000000	0,065100
509,000000	0,066079
508,000000	0,066899
507,000000	0,067770
506,000000	0,068492
505,000000	0,069382
504,000000	0,070049
503,000000	0,071793
502,000000	0,072211
501,000000	0,073333
500,000000	0,074127
499,000000	0,075284
498,000000	0,076242
497,000000	0,077312
496,000000	0,078255
495,000000	0,079410
494,000000	0,080231
493,000000	0,081366
492,000000	0,082347
491,000000	0,083462
490,000000	0,084544
489,000000	0,085690
488,000000	0,087171
487,000000	0,088305
486,000000	0,089478
485,000000	0,090718
484,000000	0,091885
483,000000	0,092983
482,000000	0,094326
481,000000	0,095746
480,000000	0,096655
479,000000	0,098012
478,000000	0,099153
477,000000	0,100574
476,000000	0,102088
475,000000	0,103183
474,000000	0,104484
473,000000	0,106291
472,000000	0,107903
471,000000	0,108899
470,000000	0,110501
469,000000	0,111609
468,000000	0,113068
467,000000	0,114897
466,000000	0,116412
465,000000	0,118289
464,000000	0,119492
463,000000	0,121409
462,000000	0,122876
461,000000	0,124503
460,000000	0,126605
459,000000	0,128244
458,000000	0,130150
457,000000	0,132133
456,000000	0,134054
455,000000	0,135700
454,000000	0,137358
453,000000	0,139090
452,000000	0,141154
451,000000	0,143127
450,000000	0,144920
449,000000	0,146906
448,000000	0,149245
447,000000	0,151390
446,000000	0,153562
445,000000	0,155985
444,000000	0,157748
443,000000	0,160111
442,000000	0,161527
441,000000	0,164066
440,000000	0,166843
439,000000	0,168576
438,000000	0,171707
437,000000	0,173813
436,000000	0,176713
435,000000	0,178841
434,000000	0,181548
433,000000	0,183980
432,000000	0,186406
431,000000	0,189743
430,000000	0,192293
429,000000	0,195884
428,000000	0,199100
427,000000	0,201137
426,000000	0,204816
425,000000	0,207500
424,000000	0,210465
423,000000	0,213565
422,000000	0,216094
421,000000	0,218111
420,000000	0,221463
419,000000	0,224592
418,000000	0,228217
417,000000	0,231721
416,000000	0,234751
415,000000	0,238234
414,000000	0,241568
413,000000	0,245305
412,000000	0,249027
411,000000	0,252709
410,000000	0,256178
409,000000	0,260226
408,000000	0,264326
407,000000	0,267896
406,000000	0,271980
405,000000	0,275941
404,000000	0,279927
403,000000	0,284160
402,000000	0,288519
401,000000	0,292675
400,000000	0,297373
399,000000	0,302040
398,000000	0,306342
397,000000	0,311141
396,000000	0,315733
395,000000	0,320382
394,000000	0,324656
393,000000	0,329411
392,000000	0,334485
391,000000	0,339277
390,000000	0,343938
