PE UV       SUBTECH     SPECTRUM    ASCII       PEDS        4.00        
   -1
30.Sample.Raw.asc
20/10/03
15:55:47.00
20/10/03
15:55:47.00
Analyst

390,000000
1
Lambda 25
501s11081509
PerkinElmer UV WinLab 6.0.3.0730 / Lambda25 1.27

480
2
1
0
0
Both on
1
1
1
None
0
0
0
0
 
 
0
0
0
0
0
 
 
 
0
 
0
326
0
 
0
 
 
 
0
0
0
 
0
 
 
 
0
 
 
0
0
0
0
0
 
 
 
 
0
0


#HDR
-1
-1
#GR
nm
A
1.0
0.0
700,000000
-1,000000
311
8
0,008479
0,001324
#DATA
700,000000	0,001449
699,000000	0,001683
698,000000	0,001516
697,000000	0,001693
696,000000	0,001438
695,000000	0,001636
694,000000	0,001324
693,000000	0,001687
692,000000	0,001522
691,000000	0,001408
690,000000	0,001757
689,000000	0,001490
688,000000	0,001618
687,000000	0,001607
686,000000	0,001607
685,000000	0,001682
684,000000	0,001625
683,000000	0,002379
682,000000	0,002107
681,000000	0,002224
680,000000	0,002186
679,000000	0,002199
678,000000	0,002398
677,000000	0,002096
676,000000	0,002287
675,000000	0,002345
674,000000	0,002392
673,000000	0,002558
672,000000	0,002240
671,000000	0,002670
670,000000	0,002815
669,000000	0,002426
668,000000	0,002406
667,000000	0,002574
666,000000	0,002490
665,000000	0,002438
664,000000	0,002803
663,000000	0,002488
662,000000	0,002293
661,000000	0,002162
660,000000	0,002416
659,000000	0,002270
658,000000	0,002453
657,000000	0,002267
656,000000	0,002466
655,000000	0,002351
654,000000	0,002443
653,000000	0,002663
652,000000	0,002144
651,000000	0,002360
650,000000	0,002389
649,000000	0,002282
648,000000	0,002411
647,000000	0,002611
646,000000	0,002679
645,000000	0,002367
644,000000	0,002442
643,000000	0,002385
642,000000	0,002359
641,000000	0,002688
640,000000	0,002442
639,000000	0,002218
638,000000	0,002497
637,000000	0,002443
636,000000	0,002394
635,000000	0,002331
634,000000	0,002348
633,000000	0,002536
632,000000	0,002627
631,000000	0,002469
630,000000	0,002365
629,000000	0,002649
628,000000	0,002477
627,000000	0,002836
626,000000	0,002678
625,000000	0,002862
624,000000	0,002691
623,000000	0,002579
622,000000	0,002670
621,000000	0,002541
620,000000	0,002465
619,000000	0,002546
618,000000	0,002367
617,000000	0,002837
616,000000	0,002205
615,000000	0,002679
614,000000	0,002741
613,000000	0,002692
612,000000	0,002200
611,000000	0,002549
610,000000	0,002304
609,000000	0,002409
608,000000	0,002490
607,000000	0,002437
606,000000	0,002478
605,000000	0,002549
604,000000	0,002582
603,000000	0,002519
602,000000	0,002486
601,000000	0,002656
600,000000	0,002461
599,000000	0,002598
598,000000	0,002656
597,000000	0,002782
596,000000	0,002728
595,000000	0,002778
594,000000	0,002665
593,000000	0,002529
592,000000	0,002721
591,000000	0,002489
590,000000	0,003037
589,000000	0,002675
588,000000	0,002820
587,000000	0,002852
586,000000	0,003056
585,000000	0,003070
584,000000	0,003413
583,000000	0,003228
582,000000	0,002970
581,000000	0,003165
580,000000	0,003148
579,000000	0,003324
578,000000	0,003432
577,000000	0,003501
576,000000	0,003345
575,000000	0,003404
574,000000	0,003418
573,000000	0,003374
572,000000	0,003482
571,000000	0,003344
570,000000	0,002888
569,000000	0,003645
568,000000	0,003416
567,000000	0,003854
566,000000	0,003766
565,000000	0,004281
564,000000	0,003520
563,000000	0,003740
562,000000	0,003889
561,000000	0,004278
560,000000	0,003782
559,000000	0,003154
558,000000	0,003348
557,000000	0,003481
556,000000	0,003313
555,000000	0,003481
554,000000	0,003346
553,000000	0,003177
552,000000	0,003091
551,000000	0,003214
550,000000	0,003448
549,000000	0,003081
548,000000	0,003362
547,000000	0,003485
546,000000	0,003378
545,000000	0,003522
544,000000	0,003471
543,000000	0,003207
542,000000	0,003165
541,000000	0,003313
540,000000	0,003198
539,000000	0,003396
538,000000	0,003155
537,000000	0,003533
536,000000	0,003286
535,000000	0,003498
534,000000	0,003307
533,000000	0,003447
532,000000	0,003388
531,000000	0,003218
530,000000	0,003463
529,000000	0,003349
528,000000	0,003179
527,000000	0,003424
526,000000	0,003442
525,000000	0,003306
524,000000	0,003301
523,000000	0,002768
522,000000	0,003263
521,000000	0,003204
520,000000	0,003318
519,000000	0,003401
518,000000	0,003639
517,000000	0,003491
516,000000	0,003464
515,000000	0,003561
514,000000	0,003064
513,000000	0,003597
512,000000	0,003323
511,000000	0,003475
510,000000	0,003465
509,000000	0,003456
508,000000	0,003616
507,000000	0,003747
506,000000	0,003490
505,000000	0,003310
504,000000	0,003574
503,000000	0,003837
502,000000	0,003550
501,000000	0,003624
500,000000	0,003494
499,000000	0,003806
498,000000	0,003488
497,000000	0,003449
496,000000	0,003525
495,000000	0,003621
494,000000	0,003642
493,000000	0,003684
492,000000	0,003561
491,000000	0,003531
490,000000	0,003673
489,000000	0,003593
488,000000	0,003615
487,000000	0,003614
486,000000	0,003801
485,000000	0,003850
484,000000	0,003682
483,000000	0,003459
482,000000	0,003846
481,000000	0,003821
480,000000	0,003588
479,000000	0,003707
478,000000	0,003559
477,000000	0,003837
476,000000	0,003912
475,000000	0,003396
474,000000	0,003732
473,000000	0,004121
472,000000	0,004306
471,000000	0,003996
470,000000	0,004112
469,000000	0,003717
468,000000	0,003913
467,000000	0,004215
466,000000	0,003755
465,000000	0,004137
464,000000	0,003938
463,000000	0,004232
462,000000	0,004141
461,000000	0,004046
460,000000	0,004216
459,000000	0,004396
458,000000	0,004496
457,000000	0,004532
456,000000	0,004840
455,000000	0,004327
454,000000	0,004543
453,000000	0,004395
452,000000	0,004476
451,000000	0,004314
450,000000	0,004636
449,000000	0,004622
448,000000	0,004690
447,000000	0,005179
446,000000	0,005156
445,000000	0,005395
444,000000	0,005223
443,000000	0,005274
442,000000	0,004681
441,000000	0,005086
440,000000	0,005516
439,000000	0,005321
438,000000	0,005817
437,000000	0,005566
436,000000	0,005921
435,000000	0,005327
434,000000	0,005885
433,000000	0,005727
432,000000	0,005679
431,000000	0,006447
430,000000	0,005973
429,000000	0,006376
428,000000	0,006347
427,000000	0,006079
426,000000	0,006277
425,000000	0,006211
424,000000	0,006630
423,000000	0,006351
422,000000	0,006284
421,000000	0,004041
420,000000	0,004234
419,000000	0,004145
418,000000	0,004340
417,000000	0,004627
416,000000	0,004517
415,000000	0,004651
414,000000	0,004464
413,000000	0,005087
412,000000	0,004588
411,000000	0,004992
410,000000	0,004967
409,000000	0,004977
408,000000	0,005410
407,000000	0,005122
406,000000	0,005008
405,000000	0,005586
404,000000	0,005352
403,000000	0,005426
402,000000	0,005877
401,000000	0,005905
400,000000	0,005909
399,000000	0,006000
398,000000	0,006493
397,000000	0,006989
396,000000	0,006978
395,000000	0,007081
394,000000	0,007135
393,000000	0,007542
392,000000	0,008156
391,000000	0,008365
390,000000	0,008479
