PE UV       SUBTECH     SPECTRUM    ASCII       PEDS        4.00        
   -1
34.Sample.Raw.asc
20/10/03
15:57:45.00
20/10/03
15:57:45.00
Analyst

390,000000
1
Lambda 25
501s11081509
PerkinElmer UV WinLab 6.0.3.0730 / Lambda25 1.27

480
2
1
0
0
Both on
1
1
1
None
0
0
0
0
 
 
0
0
0
0
0
 
 
 
0
 
0
326
0
 
0
 
 
 
0
0
0
 
0
 
 
 
0
 
 
0
0
0
0
0
 
 
 
 
0
0


#HDR
-1
-1
#GR
nm
A
1.0
0.0
700,000000
-1,000000
311
8
0,014093
0,000801
#DATA
700,000000	0,000886
699,000000	0,001042
698,000000	0,000858
697,000000	0,001002
696,000000	0,000932
695,000000	0,001056
694,000000	0,000801
693,000000	0,001015
692,000000	0,001102
691,000000	0,000868
690,000000	0,001143
689,000000	0,001008
688,000000	0,001165
687,000000	0,001046
686,000000	0,001067
685,000000	0,001067
684,000000	0,001196
683,000000	0,001746
682,000000	0,001627
681,000000	0,001264
680,000000	0,001822
679,000000	0,001558
678,000000	0,001598
677,000000	0,001641
676,000000	0,001802
675,000000	0,001968
674,000000	0,001873
673,000000	0,001840
672,000000	0,001597
671,000000	0,002126
670,000000	0,001898
669,000000	0,001870
668,000000	0,002000
667,000000	0,001776
666,000000	0,002058
665,000000	0,001840
664,000000	0,001769
663,000000	0,001757
662,000000	0,001832
661,000000	0,001397
660,000000	0,001663
659,000000	0,001680
658,000000	0,001792
657,000000	0,001859
656,000000	0,002108
655,000000	0,001668
654,000000	0,001731
653,000000	0,001693
652,000000	0,001586
651,000000	0,001815
650,000000	0,001835
649,000000	0,001762
648,000000	0,001924
647,000000	0,002094
646,000000	0,001995
645,000000	0,001804
644,000000	0,001850
643,000000	0,001638
642,000000	0,001571
641,000000	0,001796
640,000000	0,001871
639,000000	0,001663
638,000000	0,001930
637,000000	0,001780
636,000000	0,001580
635,000000	0,001610
634,000000	0,001818
633,000000	0,001543
632,000000	0,002263
631,000000	0,002002
630,000000	0,001739
629,000000	0,002135
628,000000	0,001893
627,000000	0,002110
626,000000	0,001752
625,000000	0,002152
624,000000	0,001998
623,000000	0,001757
622,000000	0,002069
621,000000	0,002044
620,000000	0,002189
619,000000	0,001940
618,000000	0,001753
617,000000	0,002044
616,000000	0,001766
615,000000	0,001953
614,000000	0,002148
613,000000	0,001999
612,000000	0,001628
611,000000	0,002307
610,000000	0,001732
609,000000	0,002062
608,000000	0,001947
607,000000	0,001848
606,000000	0,001964
605,000000	0,001906
604,000000	0,002035
603,000000	0,002373
602,000000	0,002052
601,000000	0,002180
600,000000	0,001973
599,000000	0,002209
598,000000	0,002130
597,000000	0,002439
596,000000	0,002177
595,000000	0,002156
594,000000	0,002339
593,000000	0,002157
592,000000	0,002174
591,000000	0,001909
590,000000	0,002443
589,000000	0,002152
588,000000	0,002380
587,000000	0,002127
586,000000	0,002342
585,000000	0,002436
584,000000	0,002467
583,000000	0,002672
582,000000	0,002755
581,000000	0,002617
580,000000	0,002611
579,000000	0,002769
578,000000	0,002924
577,000000	0,002669
576,000000	0,002976
575,000000	0,002755
574,000000	0,002998
573,000000	0,002813
572,000000	0,002891
571,000000	0,002999
570,000000	0,002730
569,000000	0,002976
568,000000	0,003015
567,000000	0,003236
566,000000	0,003096
565,000000	0,003820
564,000000	0,003375
563,000000	0,003574
562,000000	0,003880
561,000000	0,003761
560,000000	0,003257
559,000000	0,002907
558,000000	0,002973
557,000000	0,003315
556,000000	0,002861
555,000000	0,003077
554,000000	0,002852
553,000000	0,002806
552,000000	0,002839
551,000000	0,003111
550,000000	0,003158
549,000000	0,003052
548,000000	0,003196
547,000000	0,003255
546,000000	0,003186
545,000000	0,002913
544,000000	0,003041
543,000000	0,003011
542,000000	0,003071
541,000000	0,003359
540,000000	0,003258
539,000000	0,003413
538,000000	0,003181
537,000000	0,003431
536,000000	0,003427
535,000000	0,003366
534,000000	0,003494
533,000000	0,003345
532,000000	0,003537
531,000000	0,003320
530,000000	0,003523
529,000000	0,003320
528,000000	0,003299
527,000000	0,003548
526,000000	0,003387
525,000000	0,003319
524,000000	0,003514
523,000000	0,003275
522,000000	0,003570
521,000000	0,003383
520,000000	0,003701
519,000000	0,003703
518,000000	0,003529
517,000000	0,003520
516,000000	0,003689
515,000000	0,003685
514,000000	0,003426
513,000000	0,004014
512,000000	0,003574
511,000000	0,003696
510,000000	0,003912
509,000000	0,003953
508,000000	0,003794
507,000000	0,004031
506,000000	0,003872
505,000000	0,003870
504,000000	0,003892
503,000000	0,004194
502,000000	0,004060
501,000000	0,004291
500,000000	0,003889
499,000000	0,004107
498,000000	0,004125
497,000000	0,004038
496,000000	0,003941
495,000000	0,004367
494,000000	0,004163
493,000000	0,004315
492,000000	0,004247
491,000000	0,004196
490,000000	0,004288
489,000000	0,004152
488,000000	0,004551
487,000000	0,004813
486,000000	0,004403
485,000000	0,004770
484,000000	0,004643
483,000000	0,004577
482,000000	0,004786
481,000000	0,004697
480,000000	0,004481
479,000000	0,004918
478,000000	0,004520
477,000000	0,004866
476,000000	0,005200
475,000000	0,004616
474,000000	0,005054
473,000000	0,005270
472,000000	0,005400
471,000000	0,005120
470,000000	0,005245
469,000000	0,005076
468,000000	0,005276
467,000000	0,005618
466,000000	0,005541
465,000000	0,005766
464,000000	0,005360
463,000000	0,005658
462,000000	0,005462
461,000000	0,005478
460,000000	0,005760
459,000000	0,005993
458,000000	0,006166
457,000000	0,006066
456,000000	0,006192
455,000000	0,006157
454,000000	0,006011
453,000000	0,006085
452,000000	0,005833
451,000000	0,006523
450,000000	0,006405
449,000000	0,006577
448,000000	0,006861
447,000000	0,007055
446,000000	0,007008
445,000000	0,007252
444,000000	0,007305
443,000000	0,007615
442,000000	0,007153
441,000000	0,007371
440,000000	0,007842
439,000000	0,007424
438,000000	0,007862
437,000000	0,008040
436,000000	0,007916
435,000000	0,008059
434,000000	0,008094
433,000000	0,008279
432,000000	0,008697
431,000000	0,009079
430,000000	0,008819
429,000000	0,009233
428,000000	0,009126
427,000000	0,008889
426,000000	0,009092
425,000000	0,009231
424,000000	0,009674
423,000000	0,009967
422,000000	0,009852
421,000000	0,007503
420,000000	0,007762
419,000000	0,007699
418,000000	0,008205
417,000000	0,008533
416,000000	0,008459
415,000000	0,008433
414,000000	0,008630
413,000000	0,008987
412,000000	0,009055
411,000000	0,009296
410,000000	0,009245
409,000000	0,009515
408,000000	0,009924
407,000000	0,010030
406,000000	0,010167
405,000000	0,010453
404,000000	0,010491
403,000000	0,010614
402,000000	0,010978
401,000000	0,011232
400,000000	0,011541
399,000000	0,011860
398,000000	0,012140
397,000000	0,012620
396,000000	0,012518
395,000000	0,012678
394,000000	0,012656
393,000000	0,013080
392,000000	0,013578
391,000000	0,013881
390,000000	0,014093
