PE UV       SUBTECH     SPECTRUM    ASCII       PEDS        4.00        
   -1
35.Sample.Raw.asc
20/10/03
16:00:03.00
20/10/03
16:00:03.00
Analyst

390,000000
1
Lambda 25
501s11081509
PerkinElmer UV WinLab 6.0.3.0730 / Lambda25 1.27

480
2
1
0
0
Both on
1
1
1
None
0
0
0
0
 
 
0
0
0
0
0
 
 
 
0
 
0
326
0
 
0
 
 
 
0
0
0
 
0
 
 
 
0
 
 
0
0
0
0
0
 
 
 
 
0
0


#HDR
-1
-1
#GR
nm
A
1.0
0.0
700,000000
-1,000000
311
8
2,120267
0,003096
#DATA
700,000000	0,003134
699,000000	0,003452
698,000000	0,003124
697,000000	0,003244
696,000000	0,003096
695,000000	0,003209
694,000000	0,003161
693,000000	0,003301
692,000000	0,003302
691,000000	0,003275
690,000000	0,003563
689,000000	0,003383
688,000000	0,003384
687,000000	0,003352
686,000000	0,003341
685,000000	0,003483
684,000000	0,003302
683,000000	0,004235
682,000000	0,003912
681,000000	0,003748
680,000000	0,003830
679,000000	0,003952
678,000000	0,004305
677,000000	0,004111
676,000000	0,003995
675,000000	0,004170
674,000000	0,004250
673,000000	0,004604
672,000000	0,004095
671,000000	0,004700
670,000000	0,004722
669,000000	0,004519
668,000000	0,004567
667,000000	0,004461
666,000000	0,004823
665,000000	0,004426
664,000000	0,004638
663,000000	0,004556
662,000000	0,004670
661,000000	0,004661
660,000000	0,004477
659,000000	0,004514
658,000000	0,004619
657,000000	0,004813
656,000000	0,004640
655,000000	0,004731
654,000000	0,004473
653,000000	0,004664
652,000000	0,004479
651,000000	0,004734
650,000000	0,004913
649,000000	0,004510
648,000000	0,004618
647,000000	0,004890
646,000000	0,004754
645,000000	0,004667
644,000000	0,004779
643,000000	0,004711
642,000000	0,004731
641,000000	0,004767
640,000000	0,004746
639,000000	0,004799
638,000000	0,004781
637,000000	0,004737
636,000000	0,004662
635,000000	0,004666
634,000000	0,004495
633,000000	0,004629
632,000000	0,004690
631,000000	0,004809
630,000000	0,004823
629,000000	0,004960
628,000000	0,005069
627,000000	0,005183
626,000000	0,005113
625,000000	0,005313
624,000000	0,005091
623,000000	0,004913
622,000000	0,005201
621,000000	0,004871
620,000000	0,005171
619,000000	0,005148
618,000000	0,004906
617,000000	0,005259
616,000000	0,004980
615,000000	0,005392
614,000000	0,005290
613,000000	0,005111
612,000000	0,004995
611,000000	0,005357
610,000000	0,005002
609,000000	0,005163
608,000000	0,005330
607,000000	0,005321
606,000000	0,005521
605,000000	0,005147
604,000000	0,005629
603,000000	0,005360
602,000000	0,005285
601,000000	0,005551
600,000000	0,005193
599,000000	0,005598
598,000000	0,005405
597,000000	0,005628
596,000000	0,005679
595,000000	0,005611
594,000000	0,005750
593,000000	0,005266
592,000000	0,005565
591,000000	0,005363
590,000000	0,005867
589,000000	0,005733
588,000000	0,005869
587,000000	0,005804
586,000000	0,005901
585,000000	0,006165
584,000000	0,006167
583,000000	0,006124
582,000000	0,006071
581,000000	0,006010
580,000000	0,006148
579,000000	0,006136
578,000000	0,006443
577,000000	0,006512
576,000000	0,006618
575,000000	0,006348
574,000000	0,006500
573,000000	0,006432
572,000000	0,006418
571,000000	0,006610
570,000000	0,006563
569,000000	0,006921
568,000000	0,006824
567,000000	0,007210
566,000000	0,007306
565,000000	0,007381
564,000000	0,007224
563,000000	0,007637
562,000000	0,007317
561,000000	0,007550
560,000000	0,007339
559,000000	0,007470
558,000000	0,007264
557,000000	0,007674
556,000000	0,007515
555,000000	0,007601
554,000000	0,007612
553,000000	0,007606
552,000000	0,007721
551,000000	0,007849
550,000000	0,007944
549,000000	0,007857
548,000000	0,007876
547,000000	0,007952
546,000000	0,007929
545,000000	0,008165
544,000000	0,008058
543,000000	0,008217
542,000000	0,008119
541,000000	0,008034
540,000000	0,008359
539,000000	0,008332
538,000000	0,008195
537,000000	0,008402
536,000000	0,008614
535,000000	0,008680
534,000000	0,008426
533,000000	0,008552
532,000000	0,008814
531,000000	0,008825
530,000000	0,008842
529,000000	0,008780
528,000000	0,008716
527,000000	0,009121
526,000000	0,009015
525,000000	0,008990
524,000000	0,009225
523,000000	0,009052
522,000000	0,009402
521,000000	0,009420
520,000000	0,009383
519,000000	0,009994
518,000000	0,009810
517,000000	0,010025
516,000000	0,009992
515,000000	0,010375
514,000000	0,010104
513,000000	0,010735
512,000000	0,010674
511,000000	0,010768
510,000000	0,010891
509,000000	0,011013
508,000000	0,011679
507,000000	0,011888
506,000000	0,011761
505,000000	0,012262
504,000000	0,012459
503,000000	0,013289
502,000000	0,013262
501,000000	0,014052
500,000000	0,013836
499,000000	0,015000
498,000000	0,015503
497,000000	0,016227
496,000000	0,016951
495,000000	0,018282
494,000000	0,019634
493,000000	0,020915
492,000000	0,022562
491,000000	0,024069
490,000000	0,026588
489,000000	0,029161
488,000000	0,032442
487,000000	0,036202
486,000000	0,040576
485,000000	0,045852
484,000000	0,051427
483,000000	0,058274
482,000000	0,066408
481,000000	0,075150
480,000000	0,085581
479,000000	0,097487
478,000000	0,112119
477,000000	0,129057
476,000000	0,148052
475,000000	0,170731
474,000000	0,194990
473,000000	0,222596
472,000000	0,254111
471,000000	0,289862
470,000000	0,331293
469,000000	0,377765
468,000000	0,430967
467,000000	0,490467
466,000000	0,557040
465,000000	0,631231
464,000000	0,709139
463,000000	0,794652
462,000000	0,890153
461,000000	0,991440
460,000000	1,099666
459,000000	1,217022
458,000000	1,331353
457,000000	1,446133
456,000000	1,555859
455,000000	1,637731
454,000000	1,720273
453,000000	1,785495
452,000000	1,835177
451,000000	1,866651
450,000000	1,906927
449,000000	1,936280
448,000000	1,956884
447,000000	1,969700
446,000000	1,979787
445,000000	1,996377
444,000000	1,996603
443,000000	1,982577
442,000000	1,982225
441,000000	2,001281
440,000000	2,006041
439,000000	2,023912
438,000000	2,046043
437,000000	2,029503
436,000000	2,044260
435,000000	2,023553
434,000000	2,016812
433,000000	2,046951
432,000000	2,061428
431,000000	2,050737
430,000000	2,055589
429,000000	2,085129
428,000000	2,071277
427,000000	2,083670
426,000000	2,091068
425,000000	2,101242
424,000000	2,089095
423,000000	2,099868
422,000000	2,120267
421,000000	1,558619
420,000000	1,570663
419,000000	1,568629
418,000000	1,567878
417,000000	1,563299
416,000000	1,564792
415,000000	1,561200
414,000000	1,558595
413,000000	1,556328
412,000000	1,549679
411,000000	1,547527
410,000000	1,547021
409,000000	1,545122
408,000000	1,544302
407,000000	1,542320
406,000000	1,535059
405,000000	1,537164
404,000000	1,532861
403,000000	1,527186
402,000000	1,525294
401,000000	1,522040
400,000000	1,517010
399,000000	1,512554
398,000000	1,508725
397,000000	1,507678
396,000000	1,504716
395,000000	1,497907
394,000000	1,492844
393,000000	1,493561
392,000000	1,486126
391,000000	1,478887
390,000000	1,477708
