PE UV       SUBTECH     SPECTRUM    ASCII       PEDS        4.00        
   -1
37.Sample.Raw.asc
20/10/03
16:02:14.00
20/10/03
16:02:14.00
Analyst

390,000000
1
Lambda 25
501s11081509
PerkinElmer UV WinLab 6.0.3.0730 / Lambda25 1.27

480
2
1
0
0
Both on
1
1
1
None
0
0
0
0
 
 
0
0
0
0
0
 
 
 
0
 
0
326
0
 
0
 
 
 
0
0
0
 
0
 
 
 
0
 
 
0
0
0
0
0
 
 
 
 
0
0


#HDR
-1
-1
#GR
nm
A
1.0
0.0
700,000000
-1,000000
311
8
1,444178
0,025128
#DATA
700,000000	0,025128
699,000000	0,025307
698,000000	0,025271
697,000000	0,025371
696,000000	0,025337
695,000000	0,025549
694,000000	0,025342
693,000000	0,025528
692,000000	0,025795
691,000000	0,025649
690,000000	0,026116
689,000000	0,025842
688,000000	0,026022
687,000000	0,026102
686,000000	0,026126
685,000000	0,026181
684,000000	0,026358
683,000000	0,027095
682,000000	0,026723
681,000000	0,026969
680,000000	0,026932
679,000000	0,027172
678,000000	0,027415
677,000000	0,027252
676,000000	0,027225
675,000000	0,027618
674,000000	0,027473
673,000000	0,027530
672,000000	0,027388
671,000000	0,027940
670,000000	0,028309
669,000000	0,028171
668,000000	0,027991
667,000000	0,027911
666,000000	0,028313
665,000000	0,028073
664,000000	0,028282
663,000000	0,028368
662,000000	0,028110
661,000000	0,028207
660,000000	0,028160
659,000000	0,028091
658,000000	0,028520
657,000000	0,028455
656,000000	0,028572
655,000000	0,028581
654,000000	0,028433
653,000000	0,028769
652,000000	0,028554
651,000000	0,028783
650,000000	0,028922
649,000000	0,028608
648,000000	0,028648
647,000000	0,029091
646,000000	0,029186
645,000000	0,028971
644,000000	0,029206
643,000000	0,029118
642,000000	0,029394
641,000000	0,029531
640,000000	0,029491
639,000000	0,029421
638,000000	0,029501
637,000000	0,029491
636,000000	0,029446
635,000000	0,029704
634,000000	0,029724
633,000000	0,029843
632,000000	0,030200
631,000000	0,029812
630,000000	0,030092
629,000000	0,030271
628,000000	0,030368
627,000000	0,030430
626,000000	0,030580
625,000000	0,030887
624,000000	0,030602
623,000000	0,030533
622,000000	0,030750
621,000000	0,030472
620,000000	0,030956
619,000000	0,030754
618,000000	0,030697
617,000000	0,031297
616,000000	0,031031
615,000000	0,031305
614,000000	0,031373
613,000000	0,031393
612,000000	0,031184
611,000000	0,031585
610,000000	0,031378
609,000000	0,031562
608,000000	0,031837
607,000000	0,031833
606,000000	0,031830
605,000000	0,031986
604,000000	0,032323
603,000000	0,032362
602,000000	0,032194
601,000000	0,032647
600,000000	0,032360
599,000000	0,032765
598,000000	0,032916
597,000000	0,032972
596,000000	0,032925
595,000000	0,033074
594,000000	0,033066
593,000000	0,032924
592,000000	0,033190
591,000000	0,033114
590,000000	0,033311
589,000000	0,033535
588,000000	0,033503
587,000000	0,033234
586,000000	0,033685
585,000000	0,033812
584,000000	0,034380
583,000000	0,034276
582,000000	0,034196
581,000000	0,034384
580,000000	0,034547
579,000000	0,034899
578,000000	0,035046
577,000000	0,034777
576,000000	0,035131
575,000000	0,035043
574,000000	0,035345
573,000000	0,035641
572,000000	0,035651
571,000000	0,035906
570,000000	0,035678
569,000000	0,036156
568,000000	0,036059
567,000000	0,036480
566,000000	0,036732
565,000000	0,037010
564,000000	0,036540
563,000000	0,036948
562,000000	0,037350
561,000000	0,037178
560,000000	0,037145
559,000000	0,037256
558,000000	0,037248
557,000000	0,037470
556,000000	0,037406
555,000000	0,037361
554,000000	0,037432
553,000000	0,037460
552,000000	0,037575
551,000000	0,037929
550,000000	0,038153
549,000000	0,038227
548,000000	0,038396
547,000000	0,038440
546,000000	0,038543
545,000000	0,038378
544,000000	0,038658
543,000000	0,038603
542,000000	0,038615
541,000000	0,039107
540,000000	0,039188
539,000000	0,039495
538,000000	0,039316
537,000000	0,039570
536,000000	0,039633
535,000000	0,040030
534,000000	0,040004
533,000000	0,040159
532,000000	0,040384
531,000000	0,040269
530,000000	0,040676
529,000000	0,040687
528,000000	0,041112
527,000000	0,041144
526,000000	0,041012
525,000000	0,041296
524,000000	0,041538
523,000000	0,041403
522,000000	0,041893
521,000000	0,042064
520,000000	0,042126
519,000000	0,042507
518,000000	0,042571
517,000000	0,042365
516,000000	0,042844
515,000000	0,042842
514,000000	0,042951
513,000000	0,043402
512,000000	0,043418
511,000000	0,043592
510,000000	0,043581
509,000000	0,044037
508,000000	0,044321
507,000000	0,044229
506,000000	0,044007
505,000000	0,044730
504,000000	0,044458
503,000000	0,045076
502,000000	0,045175
501,000000	0,045410
500,000000	0,045153
499,000000	0,045589
498,000000	0,045745
497,000000	0,045652
496,000000	0,045835
495,000000	0,046252
494,000000	0,046340
493,000000	0,046717
492,000000	0,046585
491,000000	0,046749
490,000000	0,047304
489,000000	0,047260
488,000000	0,047676
487,000000	0,048030
486,000000	0,048146
485,000000	0,048493
484,000000	0,048828
483,000000	0,048650
482,000000	0,049028
481,000000	0,049270
480,000000	0,049610
479,000000	0,049600
478,000000	0,049711
477,000000	0,050362
476,000000	0,050637
475,000000	0,050604
474,000000	0,051165
473,000000	0,051514
472,000000	0,052112
471,000000	0,051787
470,000000	0,052318
469,000000	0,052497
468,000000	0,052972
467,000000	0,053420
466,000000	0,053446
465,000000	0,054242
464,000000	0,054340
463,000000	0,055068
462,000000	0,055258
461,000000	0,055820
460,000000	0,056430
459,000000	0,057030
458,000000	0,057548
457,000000	0,058464
456,000000	0,058611
455,000000	0,059278
454,000000	0,059625
453,000000	0,060499
452,000000	0,061222
451,000000	0,062435
450,000000	0,063006
449,000000	0,063629
448,000000	0,065020
447,000000	0,066827
446,000000	0,067896
445,000000	0,069351
444,000000	0,070679
443,000000	0,072771
442,000000	0,074420
441,000000	0,076794
440,000000	0,079766
439,000000	0,082846
438,000000	0,086648
437,000000	0,090975
436,000000	0,096058
435,000000	0,101665
434,000000	0,108726
433,000000	0,117532
432,000000	0,127118
431,000000	0,140359
430,000000	0,156113
429,000000	0,173586
428,000000	0,192585
427,000000	0,214103
426,000000	0,238536
425,000000	0,263480
424,000000	0,293647
423,000000	0,328870
422,000000	0,366611
421,000000	0,396995
420,000000	0,443530
419,000000	0,492941
418,000000	0,546696
417,000000	0,600727
416,000000	0,656582
415,000000	0,719019
414,000000	0,785673
413,000000	0,852412
412,000000	0,922572
411,000000	0,994589
410,000000	1,065166
409,000000	1,132190
408,000000	1,197038
407,000000	1,253491
406,000000	1,299639
405,000000	1,344943
404,000000	1,375165
403,000000	1,397293
402,000000	1,416197
401,000000	1,428856
400,000000	1,434992
399,000000	1,438833
398,000000	1,444178
397,000000	1,443910
396,000000	1,443930
395,000000	1,435340
394,000000	1,440561
393,000000	1,439226
392,000000	1,433732
391,000000	1,430058
390,000000	1,426045
