PE UV       SUBTECH     SPECTRUM    ASCII       PEDS        4.00        
   -1
43.Sample.Raw.asc
20/10/03
16:04:29.00
20/10/03
16:04:29.00
Analyst

390,000000
1
Lambda 25
501s11081509
PerkinElmer UV WinLab 6.0.3.0730 / Lambda25 1.27

480
2
1
0
0
Both on
1
1
1
None
0
0
0
0
 
 
0
0
0
0
0
 
 
 
0
 
0
326
0
 
0
 
 
 
0
0
0
 
0
 
 
 
0
 
 
0
0
0
0
0
 
 
 
 
0
0


#HDR
-1
-1
#GR
nm
A
1.0
0.0
700,000000
-1,000000
311
8
0,076089
0,001589
#DATA
700,000000	0,001589
699,000000	0,001934
698,000000	0,001615
697,000000	0,001767
696,000000	0,001603
695,000000	0,001682
694,000000	0,001740
693,000000	0,001786
692,000000	0,001716
691,000000	0,001626
690,000000	0,001939
689,000000	0,001754
688,000000	0,001977
687,000000	0,001945
686,000000	0,001653
685,000000	0,001951
684,000000	0,001927
683,000000	0,002181
682,000000	0,002430
681,000000	0,002129
680,000000	0,002435
679,000000	0,002465
678,000000	0,002535
677,000000	0,002328
676,000000	0,002428
675,000000	0,002789
674,000000	0,002699
673,000000	0,002790
672,000000	0,002468
671,000000	0,002923
670,000000	0,003015
669,000000	0,002891
668,000000	0,002747
667,000000	0,002615
666,000000	0,002827
665,000000	0,002430
664,000000	0,002633
663,000000	0,002767
662,000000	0,002643
661,000000	0,002382
660,000000	0,002553
659,000000	0,002711
658,000000	0,002711
657,000000	0,002746
656,000000	0,002770
655,000000	0,002601
654,000000	0,002597
653,000000	0,002488
652,000000	0,002536
651,000000	0,002431
650,000000	0,002731
649,000000	0,002416
648,000000	0,002524
647,000000	0,002991
646,000000	0,002708
645,000000	0,002676
644,000000	0,002725
643,000000	0,002710
642,000000	0,002764
641,000000	0,002867
640,000000	0,002730
639,000000	0,002401
638,000000	0,002655
637,000000	0,002635
636,000000	0,002728
635,000000	0,002632
634,000000	0,002636
633,000000	0,002674
632,000000	0,002923
631,000000	0,002745
630,000000	0,002553
629,000000	0,002715
628,000000	0,002770
627,000000	0,002941
626,000000	0,002804
625,000000	0,002966
624,000000	0,002891
623,000000	0,002529
622,000000	0,002963
621,000000	0,002805
620,000000	0,002945
619,000000	0,002742
618,000000	0,002638
617,000000	0,002996
616,000000	0,002660
615,000000	0,003081
614,000000	0,002812
613,000000	0,002834
612,000000	0,002588
611,000000	0,003092
610,000000	0,002738
609,000000	0,002542
608,000000	0,003079
607,000000	0,002667
606,000000	0,003193
605,000000	0,002733
604,000000	0,002958
603,000000	0,003012
602,000000	0,002875
601,000000	0,003161
600,000000	0,002900
599,000000	0,003045
598,000000	0,003074
597,000000	0,003158
596,000000	0,003351
595,000000	0,003121
594,000000	0,003246
593,000000	0,002872
592,000000	0,003072
591,000000	0,002899
590,000000	0,003137
589,000000	0,002935
588,000000	0,003210
587,000000	0,003163
586,000000	0,002959
585,000000	0,003545
584,000000	0,003443
583,000000	0,003489
582,000000	0,003354
581,000000	0,003449
580,000000	0,003436
579,000000	0,003599
578,000000	0,003860
577,000000	0,003619
576,000000	0,003914
575,000000	0,003647
574,000000	0,003895
573,000000	0,003523
572,000000	0,003976
571,000000	0,003885
570,000000	0,003472
569,000000	0,004396
568,000000	0,004111
567,000000	0,004512
566,000000	0,004432
565,000000	0,004465
564,000000	0,004242
563,000000	0,004680
562,000000	0,004936
561,000000	0,004923
560,000000	0,004343
559,000000	0,004233
558,000000	0,004082
557,000000	0,004390
556,000000	0,004354
555,000000	0,004236
554,000000	0,004054
553,000000	0,004090
552,000000	0,004136
551,000000	0,004199
550,000000	0,004349
549,000000	0,003917
548,000000	0,004416
547,000000	0,004573
546,000000	0,004311
545,000000	0,004767
544,000000	0,004277
543,000000	0,004384
542,000000	0,004115
541,000000	0,004519
540,000000	0,004315
539,000000	0,004790
538,000000	0,004597
537,000000	0,004825
536,000000	0,004749
535,000000	0,004910
534,000000	0,004876
533,000000	0,004739
532,000000	0,004859
531,000000	0,004599
530,000000	0,004969
529,000000	0,004854
528,000000	0,004868
527,000000	0,004989
526,000000	0,005063
525,000000	0,005012
524,000000	0,005160
523,000000	0,004473
522,000000	0,005002
521,000000	0,005084
520,000000	0,005078
519,000000	0,005463
518,000000	0,005302
517,000000	0,005383
516,000000	0,005454
515,000000	0,005645
514,000000	0,005283
513,000000	0,005740
512,000000	0,005317
511,000000	0,005775
510,000000	0,005573
509,000000	0,005781
508,000000	0,005945
507,000000	0,005948
506,000000	0,005696
505,000000	0,005953
504,000000	0,005694
503,000000	0,006284
502,000000	0,006121
501,000000	0,006441
500,000000	0,006179
499,000000	0,006521
498,000000	0,006266
497,000000	0,006324
496,000000	0,006212
495,000000	0,006631
494,000000	0,006789
493,000000	0,006630
492,000000	0,006561
491,000000	0,006753
490,000000	0,007015
489,000000	0,006930
488,000000	0,007393
487,000000	0,007182
486,000000	0,007256
485,000000	0,007548
484,000000	0,007339
483,000000	0,007512
482,000000	0,007892
481,000000	0,007722
480,000000	0,007705
479,000000	0,007680
478,000000	0,008009
477,000000	0,008109
476,000000	0,008273
475,000000	0,007989
474,000000	0,008552
473,000000	0,008739
472,000000	0,009255
471,000000	0,009112
470,000000	0,009206
469,000000	0,008987
468,000000	0,009396
467,000000	0,009772
466,000000	0,009676
465,000000	0,009873
464,000000	0,009967
463,000000	0,010580
462,000000	0,010303
461,000000	0,010599
460,000000	0,011079
459,000000	0,011138
458,000000	0,011541
457,000000	0,011806
456,000000	0,011735
455,000000	0,011999
454,000000	0,011777
453,000000	0,012192
452,000000	0,012693
451,000000	0,013059
450,000000	0,013050
449,000000	0,013370
448,000000	0,013697
447,000000	0,014126
446,000000	0,014473
445,000000	0,015056
444,000000	0,014994
443,000000	0,015432
442,000000	0,015525
441,000000	0,015984
440,000000	0,016816
439,000000	0,016477
438,000000	0,017460
437,000000	0,017361
436,000000	0,018243
435,000000	0,018599
434,000000	0,019006
433,000000	0,019307
432,000000	0,019874
431,000000	0,020759
430,000000	0,020843
429,000000	0,021454
428,000000	0,021462
427,000000	0,022351
426,000000	0,022778
425,000000	0,023861
424,000000	0,023974
423,000000	0,024776
422,000000	0,024656
421,000000	0,023009
420,000000	0,023790
419,000000	0,024389
418,000000	0,025494
417,000000	0,026224
416,000000	0,026678
415,000000	0,027664
414,000000	0,028367
413,000000	0,029283
412,000000	0,029883
411,000000	0,030923
410,000000	0,031867
409,000000	0,033230
408,000000	0,034630
407,000000	0,035628
406,000000	0,037017
405,000000	0,038109
404,000000	0,039634
403,000000	0,041293
402,000000	0,042976
401,000000	0,044937
400,000000	0,046844
399,000000	0,049040
398,000000	0,050948
397,000000	0,053597
396,000000	0,056071
395,000000	0,058603
394,000000	0,061534
393,000000	0,064548
392,000000	0,068971
391,000000	0,072450
390,000000	0,076089
