PE UV       SUBTECH     SPECTRUM    ASCII       PEDS        4.00        
   -1
47.Sample.Raw.asc
20/10/03
16:06:53.00
20/10/03
16:06:53.00
Analyst

390,000000
1
Lambda 25
501s11081509
PerkinElmer UV WinLab 6.0.3.0730 / Lambda25 1.27

480
2
1
0
0
Both on
1
1
1
None
0
0
0
0
 
 
0
0
0
0
0
 
 
 
0
 
0
326
0
 
0
 
 
 
0
0
0
 
0
 
 
 
0
 
 
0
0
0
0
0
 
 
 
 
0
0


#HDR
-1
-1
#GR
nm
A
1.0
0.0
700,000000
-1,000000
311
8
0,051636
0,043525
#DATA
700,000000	0,043525
699,000000	0,043873
698,000000	0,043638
697,000000	0,043927
696,000000	0,043650
695,000000	0,043926
694,000000	0,043690
693,000000	0,043932
692,000000	0,044091
691,000000	0,043881
690,000000	0,044197
689,000000	0,044012
688,000000	0,044148
687,000000	0,044200
686,000000	0,044119
685,000000	0,044259
684,000000	0,044321
683,000000	0,044054
682,000000	0,044357
681,000000	0,043991
680,000000	0,044339
679,000000	0,044133
678,000000	0,044477
677,000000	0,044412
676,000000	0,044619
675,000000	0,044780
674,000000	0,044913
673,000000	0,045142
672,000000	0,044534
671,000000	0,045459
670,000000	0,045470
669,000000	0,045343
668,000000	0,045411
667,000000	0,045299
666,000000	0,045510
665,000000	0,045211
664,000000	0,045668
663,000000	0,045483
662,000000	0,045638
661,000000	0,045398
660,000000	0,045493
659,000000	0,045782
658,000000	0,045875
657,000000	0,045855
656,000000	0,045848
655,000000	0,045657
654,000000	0,045580
653,000000	0,046014
652,000000	0,045636
651,000000	0,045954
650,000000	0,045906
649,000000	0,045841
648,000000	0,045981
647,000000	0,046127
646,000000	0,046110
645,000000	0,046167
644,000000	0,046211
643,000000	0,045921
642,000000	0,046107
641,000000	0,046424
640,000000	0,046576
639,000000	0,046191
638,000000	0,046436
637,000000	0,046179
636,000000	0,046322
635,000000	0,046318
634,000000	0,046576
633,000000	0,046367
632,000000	0,046814
631,000000	0,046557
630,000000	0,046620
629,000000	0,046714
628,000000	0,046940
627,000000	0,046995
626,000000	0,046655
625,000000	0,046897
624,000000	0,046797
623,000000	0,046760
622,000000	0,046937
621,000000	0,046600
620,000000	0,046895
619,000000	0,046727
618,000000	0,046858
617,000000	0,047222
616,000000	0,046631
615,000000	0,047149
614,000000	0,047198
613,000000	0,047080
612,000000	0,046836
611,000000	0,047091
610,000000	0,046987
609,000000	0,046848
608,000000	0,047451
607,000000	0,047062
606,000000	0,047350
605,000000	0,047083
604,000000	0,047285
603,000000	0,047394
602,000000	0,047675
601,000000	0,047594
600,000000	0,047206
599,000000	0,047598
598,000000	0,047612
597,000000	0,047767
596,000000	0,047895
595,000000	0,047494
594,000000	0,047778
593,000000	0,047353
592,000000	0,047768
591,000000	0,047470
590,000000	0,048097
589,000000	0,047654
588,000000	0,047888
587,000000	0,047781
586,000000	0,047605
585,000000	0,048213
584,000000	0,047987
583,000000	0,047919
582,000000	0,047933
581,000000	0,047992
580,000000	0,047982
579,000000	0,048022
578,000000	0,048198
577,000000	0,047972
576,000000	0,048310
575,000000	0,047784
574,000000	0,048061
573,000000	0,047901
572,000000	0,048052
571,000000	0,048095
570,000000	0,047829
569,000000	0,048244
568,000000	0,047950
567,000000	0,048281
566,000000	0,048042
565,000000	0,048630
564,000000	0,048186
563,000000	0,048324
562,000000	0,048697
561,000000	0,048431
560,000000	0,048316
559,000000	0,048119
558,000000	0,048048
557,000000	0,048577
556,000000	0,048295
555,000000	0,048091
554,000000	0,048267
553,000000	0,048139
552,000000	0,048060
551,000000	0,048270
550,000000	0,048429
549,000000	0,048348
548,000000	0,048447
547,000000	0,048604
546,000000	0,048660
545,000000	0,048319
544,000000	0,048418
543,000000	0,048248
542,000000	0,048441
541,000000	0,048411
540,000000	0,048448
539,000000	0,048780
538,000000	0,048536
537,000000	0,048611
536,000000	0,048663
535,000000	0,048583
534,000000	0,048727
533,000000	0,048621
532,000000	0,048637
531,000000	0,048693
530,000000	0,048768
529,000000	0,048536
528,000000	0,048714
527,000000	0,049026
526,000000	0,048606
525,000000	0,048664
524,000000	0,048856
523,000000	0,048465
522,000000	0,048985
521,000000	0,048465
520,000000	0,048800
519,000000	0,049155
518,000000	0,049027
517,000000	0,048935
516,000000	0,049151
515,000000	0,049119
514,000000	0,048962
513,000000	0,049254
512,000000	0,048957
511,000000	0,049245
510,000000	0,049086
509,000000	0,049230
508,000000	0,049407
507,000000	0,049171
506,000000	0,048945
505,000000	0,049060
504,000000	0,048994
503,000000	0,049367
502,000000	0,049309
501,000000	0,049492
500,000000	0,049022
499,000000	0,049356
498,000000	0,049175
497,000000	0,049066
496,000000	0,048901
495,000000	0,049278
494,000000	0,049159
493,000000	0,049110
492,000000	0,049198
491,000000	0,049217
490,000000	0,049280
489,000000	0,049146
488,000000	0,049210
487,000000	0,049386
486,000000	0,049376
485,000000	0,049235
484,000000	0,049542
483,000000	0,049364
482,000000	0,049155
481,000000	0,049331
480,000000	0,049178
479,000000	0,049074
478,000000	0,049320
477,000000	0,049431
476,000000	0,049710
475,000000	0,048999
474,000000	0,049474
473,000000	0,049639
472,000000	0,049642
471,000000	0,049368
470,000000	0,049453
469,000000	0,049177
468,000000	0,049341
467,000000	0,049441
466,000000	0,049364
465,000000	0,049998
464,000000	0,049268
463,000000	0,049482
462,000000	0,049325
461,000000	0,049347
460,000000	0,049650
459,000000	0,049790
458,000000	0,049770
457,000000	0,049990
456,000000	0,049951
455,000000	0,049598
454,000000	0,049605
453,000000	0,049503
452,000000	0,049122
451,000000	0,049717
450,000000	0,049319
449,000000	0,049339
448,000000	0,049764
447,000000	0,049833
446,000000	0,049779
445,000000	0,049937
444,000000	0,049465
443,000000	0,049787
442,000000	0,049617
441,000000	0,049880
440,000000	0,049721
439,000000	0,049643
438,000000	0,049830
437,000000	0,049741
436,000000	0,049889
435,000000	0,049311
434,000000	0,049546
433,000000	0,049677
432,000000	0,049780
431,000000	0,050115
430,000000	0,049950
429,000000	0,050338
428,000000	0,050097
427,000000	0,050055
426,000000	0,049555
425,000000	0,049917
424,000000	0,049865
423,000000	0,050467
422,000000	0,049795
421,000000	0,050154
420,000000	0,050564
419,000000	0,050149
418,000000	0,050580
417,000000	0,050597
416,000000	0,050620
415,000000	0,050372
414,000000	0,050656
413,000000	0,050838
412,000000	0,050586
411,000000	0,050644
410,000000	0,050440
409,000000	0,050741
408,000000	0,050891
407,000000	0,050753
406,000000	0,051003
405,000000	0,050771
404,000000	0,050685
403,000000	0,050710
402,000000	0,050864
401,000000	0,050787
400,000000	0,050735
399,000000	0,050907
398,000000	0,051168
397,000000	0,051453
396,000000	0,051159
395,000000	0,051040
394,000000	0,050814
393,000000	0,051025
392,000000	0,050891
391,000000	0,051636
390,000000	0,051478
