PE UV       SUBTECH     SPECTRUM    ASCII       PEDS        4.00        
   -1
49.Sample.Raw.asc
20/10/03
16:08:59.00
20/10/03
16:08:59.00
Analyst

390,000000
1
Lambda 25
501s11081509
PerkinElmer UV WinLab 6.0.3.0730 / Lambda25 1.27

480
2
1
0
0
Both on
1
1
1
None
0
0
0
0
 
 
0
0
0
0
0
 
 
 
0
 
0
326
0
 
0
 
 
 
0
0
0
 
0
 
 
 
0
 
 
0
0
0
0
0
 
 
 
 
0
0


#HDR
-1
-1
#GR
nm
A
1.0
0.0
700,000000
-1,000000
311
8
1,335917
0,001367
#DATA
700,000000	0,001626
699,000000	0,001955
698,000000	0,001697
697,000000	0,001808
696,000000	0,001685
695,000000	0,001636
694,000000	0,001485
693,000000	0,001695
692,000000	0,001827
691,000000	0,001581
690,000000	0,001724
689,000000	0,001680
688,000000	0,001738
687,000000	0,001768
686,000000	0,001682
685,000000	0,001839
684,000000	0,001840
683,000000	0,001477
682,000000	0,001569
681,000000	0,001367
680,000000	0,001487
679,000000	0,001644
678,000000	0,001698
677,000000	0,001545
676,000000	0,001637
675,000000	0,001897
674,000000	0,001546
673,000000	0,001807
672,000000	0,001539
671,000000	0,002010
670,000000	0,002189
669,000000	0,001932
668,000000	0,001863
667,000000	0,001818
666,000000	0,001979
665,000000	0,001815
664,000000	0,001955
663,000000	0,002093
662,000000	0,001820
661,000000	0,001950
660,000000	0,001701
659,000000	0,002099
658,000000	0,002129
657,000000	0,001759
656,000000	0,002208
655,000000	0,001889
654,000000	0,001977
653,000000	0,002043
652,000000	0,001940
651,000000	0,002098
650,000000	0,001898
649,000000	0,001741
648,000000	0,001757
647,000000	0,001961
646,000000	0,002024
645,000000	0,002129
644,000000	0,001991
643,000000	0,001892
642,000000	0,002059
641,000000	0,002296
640,000000	0,002454
639,000000	0,001918
638,000000	0,002188
637,000000	0,002126
636,000000	0,002143
635,000000	0,002202
634,000000	0,002052
633,000000	0,002281
632,000000	0,002305
631,000000	0,002335
630,000000	0,002115
629,000000	0,002377
628,000000	0,002369
627,000000	0,002515
626,000000	0,002290
625,000000	0,002486
624,000000	0,002524
623,000000	0,002232
622,000000	0,002520
621,000000	0,002182
620,000000	0,002553
619,000000	0,002379
618,000000	0,002158
617,000000	0,002436
616,000000	0,002155
615,000000	0,002817
614,000000	0,002528
613,000000	0,002429
612,000000	0,002271
611,000000	0,002432
610,000000	0,002454
609,000000	0,002429
608,000000	0,002770
607,000000	0,002320
606,000000	0,002662
605,000000	0,002512
604,000000	0,002657
603,000000	0,002778
602,000000	0,002369
601,000000	0,002994
600,000000	0,002620
599,000000	0,002974
598,000000	0,003070
597,000000	0,002819
596,000000	0,002957
595,000000	0,002836
594,000000	0,003104
593,000000	0,002688
592,000000	0,002884
591,000000	0,002765
590,000000	0,003053
589,000000	0,003140
588,000000	0,003004
587,000000	0,002831
586,000000	0,002858
585,000000	0,003280
584,000000	0,003279
583,000000	0,003224
582,000000	0,003253
581,000000	0,002908
580,000000	0,003127
579,000000	0,003120
578,000000	0,003343
577,000000	0,003110
576,000000	0,003196
575,000000	0,003158
574,000000	0,003185
573,000000	0,003583
572,000000	0,003312
571,000000	0,003437
570,000000	0,003233
569,000000	0,003521
568,000000	0,003514
567,000000	0,003488
566,000000	0,003514
565,000000	0,003897
564,000000	0,003401
563,000000	0,003761
562,000000	0,003957
561,000000	0,004162
560,000000	0,003334
559,000000	0,004003
558,000000	0,003834
557,000000	0,004343
556,000000	0,004235
555,000000	0,004318
554,000000	0,004157
553,000000	0,003791
552,000000	0,003862
551,000000	0,004216
550,000000	0,004135
549,000000	0,004289
548,000000	0,004275
547,000000	0,004385
546,000000	0,004358
545,000000	0,004447
544,000000	0,004576
543,000000	0,004486
542,000000	0,004444
541,000000	0,004827
540,000000	0,004716
539,000000	0,005047
538,000000	0,004486
537,000000	0,004863
536,000000	0,004928
535,000000	0,004837
534,000000	0,005299
533,000000	0,004995
532,000000	0,005303
531,000000	0,005163
530,000000	0,005413
529,000000	0,005205
528,000000	0,005530
527,000000	0,005399
526,000000	0,005302
525,000000	0,005465
524,000000	0,005562
523,000000	0,005379
522,000000	0,005720
521,000000	0,005734
520,000000	0,005826
519,000000	0,006126
518,000000	0,005956
517,000000	0,006093
516,000000	0,006245
515,000000	0,006111
514,000000	0,006125
513,000000	0,006556
512,000000	0,006548
511,000000	0,006601
510,000000	0,006805
509,000000	0,006807
508,000000	0,006847
507,000000	0,007149
506,000000	0,006871
505,000000	0,007069
504,000000	0,007211
503,000000	0,007537
502,000000	0,007665
501,000000	0,007827
500,000000	0,007800
499,000000	0,008065
498,000000	0,007800
497,000000	0,007862
496,000000	0,008148
495,000000	0,008337
494,000000	0,008363
493,000000	0,008670
492,000000	0,008729
491,000000	0,008837
490,000000	0,009099
489,000000	0,009094
488,000000	0,009566
487,000000	0,009972
486,000000	0,009957
485,000000	0,010442
484,000000	0,010254
483,000000	0,010472
482,000000	0,011089
481,000000	0,010730
480,000000	0,010974
479,000000	0,011431
478,000000	0,011324
477,000000	0,012134
476,000000	0,012429
475,000000	0,012484
474,000000	0,012846
473,000000	0,013398
472,000000	0,013897
471,000000	0,014199
470,000000	0,014386
469,000000	0,014465
468,000000	0,015179
467,000000	0,015501
466,000000	0,015957
465,000000	0,016725
464,000000	0,016907
463,000000	0,017806
462,000000	0,017843
461,000000	0,018522
460,000000	0,019117
459,000000	0,019999
458,000000	0,020826
457,000000	0,021797
456,000000	0,022486
455,000000	0,023121
454,000000	0,023851
453,000000	0,024821
452,000000	0,025804
451,000000	0,027225
450,000000	0,028194
449,000000	0,029536
448,000000	0,031570
447,000000	0,033145
446,000000	0,035199
445,000000	0,036819
444,000000	0,038849
443,000000	0,041277
442,000000	0,043940
441,000000	0,047399
440,000000	0,050857
439,000000	0,054975
438,000000	0,059881
437,000000	0,065423
436,000000	0,071805
435,000000	0,079598
434,000000	0,088296
433,000000	0,099069
432,000000	0,112005
431,000000	0,127731
430,000000	0,147206
429,000000	0,169081
428,000000	0,193323
427,000000	0,220652
426,000000	0,252448
425,000000	0,285783
424,000000	0,325857
423,000000	0,372242
422,000000	0,421556
421,000000	0,471120
420,000000	0,531849
419,000000	0,596923
418,000000	0,665696
417,000000	0,735297
416,000000	0,806708
415,000000	0,879861
414,000000	0,955879
413,000000	1,027049
412,000000	1,092991
411,000000	1,154215
410,000000	1,205418
409,000000	1,246717
408,000000	1,280072
407,000000	1,301921
406,000000	1,316435
405,000000	1,328483
404,000000	1,333946
403,000000	1,334911
402,000000	1,334562
401,000000	1,335917
400,000000	1,332830
399,000000	1,333105
398,000000	1,326817
397,000000	1,326869
396,000000	1,325600
395,000000	1,320925
394,000000	1,317062
393,000000	1,313033
392,000000	1,309948
391,000000	1,306952
390,000000	1,301446
