PE UV       SUBTECH     SPECTRUM    ASCII       PEDS        4.00        
   -1
5.Sample.Raw.asc
20/10/03
15:40:53.00
20/10/03
15:40:53.00
Analyst

390,000000
1
Lambda 25
501s11081509
PerkinElmer UV WinLab 6.0.3.0730 / Lambda25 1.27

480
2
1
0
0
Both on
1
1
1
None
0
0
0
0
 
 
0
0
0
0
0
 
 
 
0
 
0
326
0
 
0
 
 
 
0
0
0
 
0
 
 
 
0
 
 
0
0
0
0
0
 
 
 
 
0
0


#HDR
-1
-1
#GR
nm
A
1.0
0.0
700,000000
-1,000000
311
8
1,927893
0,195038
#DATA
700,000000	0,195038
699,000000	0,196118
698,000000	0,196755
697,000000	0,197491
696,000000	0,198196
695,000000	0,199026
694,000000	0,199609
693,000000	0,200536
692,000000	0,201167
691,000000	0,201760
690,000000	0,202722
689,000000	0,203187
688,000000	0,204108
687,000000	0,204845
686,000000	0,205515
685,000000	0,206418
684,000000	0,207363
683,000000	0,208372
682,000000	0,209270
681,000000	0,209867
680,000000	0,210607
679,000000	0,211865
678,000000	0,212717
677,000000	0,213573
676,000000	0,214490
675,000000	0,215418
674,000000	0,216279
673,000000	0,217053
672,000000	0,218009
671,000000	0,219268
670,000000	0,220220
669,000000	0,221157
668,000000	0,222011
667,000000	0,223203
666,000000	0,224199
665,000000	0,224843
664,000000	0,225710
663,000000	0,227036
662,000000	0,227636
661,000000	0,228678
660,000000	0,229568
659,000000	0,230338
658,000000	0,231731
657,000000	0,232681
656,000000	0,233872
655,000000	0,234391
654,000000	0,235417
653,000000	0,236575
652,000000	0,237466
651,000000	0,238495
650,000000	0,239920
649,000000	0,240667
648,000000	0,241723
647,000000	0,242871
646,000000	0,244228
645,000000	0,244973
644,000000	0,246262
643,000000	0,246891
642,000000	0,248497
641,000000	0,249653
640,000000	0,250908
639,000000	0,251570
638,000000	0,252863
637,000000	0,253722
636,000000	0,255142
635,000000	0,256233
634,000000	0,257505
633,000000	0,258679
632,000000	0,259906
631,000000	0,260854
630,000000	0,262167
629,000000	0,263393
628,000000	0,264809
627,000000	0,265738
626,000000	0,266811
625,000000	0,267877
624,000000	0,269086
623,000000	0,270114
622,000000	0,271216
621,000000	0,272320
620,000000	0,273855
619,000000	0,274849
618,000000	0,275981
617,000000	0,277319
616,000000	0,278250
615,000000	0,279566
614,000000	0,280976
613,000000	0,282038
612,000000	0,282964
611,000000	0,284737
610,000000	0,285699
609,000000	0,286877
608,000000	0,288637
607,000000	0,289487
606,000000	0,290568
605,000000	0,291854
604,000000	0,293020
603,000000	0,294351
602,000000	0,295448
601,000000	0,296879
600,000000	0,297671
599,000000	0,299274
598,000000	0,300433
597,000000	0,301553
596,000000	0,302806
595,000000	0,304109
594,000000	0,305093
593,000000	0,306355
592,000000	0,307698
591,000000	0,308647
590,000000	0,309835
589,000000	0,311123
588,000000	0,312070
587,000000	0,313587
586,000000	0,314442
585,000000	0,315835
584,000000	0,317056
583,000000	0,317867
582,000000	0,319413
581,000000	0,320308
580,000000	0,321134
579,000000	0,322687
578,000000	0,323461
577,000000	0,324523
576,000000	0,326004
575,000000	0,327275
574,000000	0,328222
573,000000	0,329407
572,000000	0,330456
571,000000	0,331180
570,000000	0,332310
569,000000	0,333684
568,000000	0,334902
567,000000	0,335985
566,000000	0,336998
565,000000	0,338330
564,000000	0,338986
563,000000	0,340278
562,000000	0,341285
561,000000	0,342404
560,000000	0,342992
559,000000	0,346182
558,000000	0,347153
557,000000	0,348394
556,000000	0,349165
555,000000	0,350323
554,000000	0,351406
553,000000	0,352543
552,000000	0,353407
551,000000	0,354655
550,000000	0,355329
549,000000	0,356605
548,000000	0,357324
547,000000	0,358485
546,000000	0,360087
545,000000	0,360864
544,000000	0,361619
543,000000	0,362659
542,000000	0,363653
541,000000	0,364571
540,000000	0,365395
539,000000	0,366741
538,000000	0,367072
537,000000	0,368502
536,000000	0,369150
535,000000	0,370333
534,000000	0,371145
533,000000	0,372018
532,000000	0,372766
531,000000	0,373663
530,000000	0,374746
529,000000	0,375197
528,000000	0,376618
527,000000	0,377523
526,000000	0,378227
525,000000	0,378976
524,000000	0,380050
523,000000	0,380163
522,000000	0,381911
521,000000	0,382637
520,000000	0,383381
519,000000	0,384544
518,000000	0,385189
517,000000	0,386114
516,000000	0,386968
515,000000	0,387505
514,000000	0,388612
513,000000	0,389377
512,000000	0,390257
511,000000	0,390952
510,000000	0,392028
509,000000	0,392957
508,000000	0,393530
507,000000	0,394770
506,000000	0,395543
505,000000	0,396569
504,000000	0,397225
503,000000	0,398266
502,000000	0,398886
501,000000	0,399886
500,000000	0,400542
499,000000	0,401307
498,000000	0,402574
497,000000	0,403349
496,000000	0,404346
495,000000	0,405943
494,000000	0,406573
493,000000	0,407900
492,000000	0,408885
491,000000	0,410035
490,000000	0,411199
489,000000	0,412723
488,000000	0,414115
487,000000	0,415902
486,000000	0,417436
485,000000	0,419348
484,000000	0,420949
483,000000	0,422356
482,000000	0,424658
481,000000	0,426797
480,000000	0,428698
479,000000	0,431294
478,000000	0,434402
477,000000	0,438136
476,000000	0,441341
475,000000	0,445052
474,000000	0,449156
473,000000	0,454237
472,000000	0,459790
471,000000	0,465978
470,000000	0,472669
469,000000	0,480055
468,000000	0,489421
467,000000	0,499759
466,000000	0,512273
465,000000	0,526582
464,000000	0,542593
463,000000	0,562456
462,000000	0,583999
461,000000	0,611067
460,000000	0,641871
459,000000	0,680053
458,000000	0,724568
457,000000	0,775672
456,000000	0,834660
455,000000	0,896286
454,000000	0,971000
453,000000	1,057143
452,000000	1,157312
451,000000	1,267792
450,000000	1,387958
449,000000	1,517499
448,000000	1,652037
447,000000	1,746511
446,000000	1,823835
445,000000	1,868508
444,000000	1,903073
443,000000	1,907557
442,000000	1,920730
441,000000	1,914984
440,000000	1,912939
439,000000	1,927542
438,000000	1,925025
437,000000	1,909952
436,000000	1,927893
435,000000	1,899177
434,000000	1,913916
433,000000	1,919053
432,000000	1,927614
431,000000	1,906254
430,000000	1,919053
429,000000	1,904393
428,000000	1,916827
427,000000	1,891821
426,000000	1,913400
425,000000	1,926951
424,000000	1,919868
423,000000	1,918264
422,000000	1,924177
421,000000	1,791159
420,000000	1,794742
419,000000	1,788269
418,000000	1,784448
417,000000	1,789014
416,000000	1,788788
415,000000	1,782789
414,000000	1,779108
413,000000	1,779561
412,000000	1,776139
411,000000	1,770179
410,000000	1,774161
409,000000	1,763842
408,000000	1,764068
407,000000	1,761799
406,000000	1,760672
405,000000	1,755845
404,000000	1,754710
403,000000	1,745797
402,000000	1,747809
401,000000	1,739007
400,000000	1,741620
399,000000	1,740448
398,000000	1,726340
397,000000	1,726210
396,000000	1,720045
395,000000	1,723923
394,000000	1,710699
393,000000	1,710231
392,000000	1,701261
391,000000	1,701590
390,000000	1,692470
