PE UV       SUBTECH     SPECTRUM    ASCII       PEDS        4.00        
   -1
6.Sample.Raw.asc
20/10/03
15:43:03.00
20/10/03
15:43:03.00
Analyst

390,000000
1
Lambda 25
501s11081509
PerkinElmer UV WinLab 6.0.3.0730 / Lambda25 1.27

480
2
1
0
0
Both on
1
1
1
None
0
0
0
0
 
 
0
0
0
0
0
 
 
 
0
 
0
326
0
 
0
 
 
 
0
0
0
 
0
 
 
 
0
 
 
0
0
0
0
0
 
 
 
 
0
0


#HDR
-1
-1
#GR
nm
A
1.0
0.0
700,000000
-1,000000
311
8
0,775079
0,000177
#DATA
700,000000	0,000480
699,000000	0,000627
698,000000	0,000431
697,000000	0,000554
696,000000	0,000546
695,000000	0,000522
694,000000	0,000382
693,000000	0,000431
692,000000	0,000649
691,000000	0,000358
690,000000	0,000649
689,000000	0,000514
688,000000	0,000572
687,000000	0,000605
686,000000	0,000478
685,000000	0,000696
684,000000	0,000523
683,000000	0,000305
682,000000	0,000202
681,000000	0,000177
680,000000	0,000223
679,000000	0,000520
678,000000	0,000606
677,000000	0,000338
676,000000	0,000310
675,000000	0,000863
674,000000	0,000628
673,000000	0,000644
672,000000	0,000463
671,000000	0,000942
670,000000	0,001087
669,000000	0,000727
668,000000	0,000711
667,000000	0,000728
666,000000	0,000790
665,000000	0,000732
664,000000	0,000832
663,000000	0,000666
662,000000	0,000637
661,000000	0,000663
660,000000	0,000555
659,000000	0,000663
658,000000	0,000936
657,000000	0,000775
656,000000	0,000667
655,000000	0,000680
654,000000	0,000684
653,000000	0,000750
652,000000	0,000518
651,000000	0,000888
650,000000	0,000788
649,000000	0,000539
648,000000	0,000714
647,000000	0,000975
646,000000	0,000697
645,000000	0,000697
644,000000	0,000614
643,000000	0,000515
642,000000	0,000980
641,000000	0,000930
640,000000	0,000872
639,000000	0,000532
638,000000	0,000976
637,000000	0,000881
636,000000	0,000665
635,000000	0,000781
634,000000	0,000627
633,000000	0,001010
632,000000	0,000918
631,000000	0,000981
630,000000	0,001044
629,000000	0,001102
628,000000	0,001006
627,000000	0,001151
626,000000	0,001098
625,000000	0,001118
624,000000	0,001272
623,000000	0,000969
622,000000	0,001118
621,000000	0,001136
620,000000	0,001193
619,000000	0,001169
618,000000	0,000857
617,000000	0,001377
616,000000	0,000786
615,000000	0,001194
614,000000	0,001248
613,000000	0,001131
612,000000	0,000903
611,000000	0,001256
610,000000	0,001327
609,000000	0,001098
608,000000	0,001289
607,000000	0,001127
606,000000	0,001418
605,000000	0,001398
604,000000	0,001227
603,000000	0,001426
602,000000	0,001293
601,000000	0,001580
600,000000	0,001039
599,000000	0,001280
598,000000	0,001393
597,000000	0,001397
596,000000	0,001351
595,000000	0,001455
594,000000	0,001476
593,000000	0,001340
592,000000	0,001248
591,000000	0,001337
590,000000	0,001466
589,000000	0,001363
588,000000	0,001217
587,000000	0,001227
586,000000	0,001157
585,000000	0,001601
584,000000	0,001661
583,000000	0,001575
582,000000	0,001699
581,000000	0,001420
580,000000	0,001379
579,000000	0,001363
578,000000	0,001664
577,000000	0,001375
576,000000	0,001308
575,000000	0,001166
574,000000	0,001428
573,000000	0,001536
572,000000	0,001570
571,000000	0,001533
570,000000	0,001034
569,000000	0,001195
568,000000	0,001267
567,000000	0,001390
566,000000	0,001339
565,000000	0,001632
564,000000	0,001315
563,000000	0,001518
562,000000	0,001657
561,000000	0,001483
560,000000	0,001103
559,000000	0,001670
558,000000	0,001628
557,000000	0,001729
556,000000	0,001445
555,000000	0,001962
554,000000	0,001449
553,000000	0,001348
552,000000	0,001521
551,000000	0,001572
550,000000	0,001551
549,000000	0,001487
548,000000	0,001644
547,000000	0,001597
546,000000	0,001647
545,000000	0,001541
544,000000	0,001444
543,000000	0,001537
542,000000	0,001541
541,000000	0,001621
540,000000	0,001541
539,000000	0,001943
538,000000	0,001452
537,000000	0,001858
536,000000	0,001587
535,000000	0,001777
534,000000	0,001735
533,000000	0,001710
532,000000	0,001782
531,000000	0,001583
530,000000	0,001913
529,000000	0,001523
528,000000	0,001722
527,000000	0,001849
526,000000	0,001586
525,000000	0,001569
524,000000	0,001777
523,000000	0,001278
522,000000	0,001675
521,000000	0,001709
520,000000	0,001806
519,000000	0,002051
518,000000	0,001644
517,000000	0,001623
516,000000	0,001978
515,000000	0,001919
514,000000	0,001530
513,000000	0,001951
512,000000	0,001754
511,000000	0,001787
510,000000	0,002036
509,000000	0,001845
508,000000	0,001942
507,000000	0,002102
506,000000	0,001646
505,000000	0,001751
504,000000	0,001663
503,000000	0,002202
502,000000	0,001700
501,000000	0,002214
500,000000	0,001974
499,000000	0,002044
498,000000	0,002142
497,000000	0,001715
496,000000	0,002002
495,000000	0,001807
494,000000	0,002288
493,000000	0,002199
492,000000	0,002161
491,000000	0,002017
490,000000	0,001983
489,000000	0,002113
488,000000	0,001977
487,000000	0,002191
486,000000	0,002082
485,000000	0,002347
484,000000	0,002128
483,000000	0,002145
482,000000	0,002426
481,000000	0,001997
480,000000	0,002212
479,000000	0,002018
478,000000	0,002119
477,000000	0,002106
476,000000	0,002480
475,000000	0,002104
474,000000	0,002212
473,000000	0,002490
472,000000	0,002730
471,000000	0,002445
470,000000	0,002568
469,000000	0,002372
468,000000	0,002596
467,000000	0,002652
466,000000	0,002451
465,000000	0,002836
464,000000	0,002602
463,000000	0,002814
462,000000	0,002829
461,000000	0,002673
460,000000	0,002779
459,000000	0,003175
458,000000	0,002934
457,000000	0,003207
456,000000	0,003251
455,000000	0,003083
454,000000	0,002948
453,000000	0,002864
452,000000	0,003324
451,000000	0,003196
450,000000	0,003551
449,000000	0,003136
448,000000	0,003797
447,000000	0,003524
446,000000	0,003924
445,000000	0,004277
444,000000	0,003954
443,000000	0,004369
442,000000	0,004012
441,000000	0,004060
440,000000	0,004828
439,000000	0,004616
438,000000	0,004904
437,000000	0,004898
436,000000	0,005408
435,000000	0,005004
434,000000	0,005435
433,000000	0,005217
432,000000	0,005913
431,000000	0,006516
430,000000	0,006306
429,000000	0,006540
428,000000	0,006797
427,000000	0,006803
426,000000	0,007900
425,000000	0,008164
424,000000	0,008654
423,000000	0,009286
422,000000	0,009956
421,000000	0,011265
420,000000	0,012472
419,000000	0,013505
418,000000	0,015479
417,000000	0,017437
416,000000	0,019165
415,000000	0,021755
414,000000	0,024924
413,000000	0,028563
412,000000	0,032624
411,000000	0,037985
410,000000	0,043862
409,000000	0,051691
408,000000	0,060299
407,000000	0,069998
406,000000	0,081122
405,000000	0,094737
404,000000	0,110070
403,000000	0,128186
402,000000	0,149596
401,000000	0,174358
400,000000	0,202747
399,000000	0,236800
398,000000	0,271459
397,000000	0,310393
396,000000	0,355040
395,000000	0,406447
394,000000	0,463808
393,000000	0,527602
392,000000	0,606320
391,000000	0,688626
390,000000	0,775079
