PE UV       SUBTECH     SPECTRUM    ASCII       PEDS        4.00        
   -1
9.Sample.Raw.asc
20/10/03
15:45:11.00
20/10/03
15:45:11.00
Analyst

390,000000
1
Lambda 25
501s11081509
PerkinElmer UV WinLab 6.0.3.0730 / Lambda25 1.27

480
2
1
0
0
Both on
1
1
1
None
0
0
0
0
 
 
0
0
0
0
0
 
 
 
0
 
0
326
0
 
0
 
 
 
0
0
0
 
0
 
 
 
0
 
 
0
0
0
0
0
 
 
 
 
0
0


#HDR
-1
-1
#GR
nm
A
1.0
0.0
700,000000
-1,000000
311
8
0,069435
0,000342
#DATA
700,000000	0,000771
699,000000	0,001087
698,000000	0,000710
697,000000	0,000817
696,000000	0,000690
695,000000	0,000727
694,000000	0,000612
693,000000	0,000941
692,000000	0,000962
691,000000	0,000699
690,000000	0,000933
689,000000	0,000810
688,000000	0,000959
687,000000	0,000790
686,000000	0,000741
685,000000	0,000910
684,000000	0,000870
683,000000	0,000635
682,000000	0,000697
681,000000	0,000342
680,000000	0,000796
679,000000	0,000656
678,000000	0,001077
677,000000	0,000706
676,000000	0,000685
675,000000	0,001049
674,000000	0,000847
673,000000	0,001004
672,000000	0,000802
671,000000	0,001132
670,000000	0,001248
669,000000	0,001323
668,000000	0,000905
667,000000	0,001067
666,000000	0,001270
665,000000	0,000848
664,000000	0,001134
663,000000	0,001047
662,000000	0,001151
661,000000	0,000941
660,000000	0,000941
659,000000	0,000878
658,000000	0,000941
657,000000	0,001107
656,000000	0,001115
655,000000	0,001240
654,000000	0,000954
653,000000	0,001170
652,000000	0,001054
651,000000	0,001066
650,000000	0,001382
649,000000	0,000743
648,000000	0,001108
647,000000	0,001220
646,000000	0,001192
645,000000	0,001042
644,000000	0,001304
643,000000	0,001143
642,000000	0,001209
641,000000	0,001487
640,000000	0,001117
639,000000	0,001068
638,000000	0,001455
637,000000	0,001226
636,000000	0,001231
635,000000	0,000993
634,000000	0,001451
633,000000	0,001210
632,000000	0,001451
631,000000	0,001231
630,000000	0,001435
629,000000	0,001418
628,000000	0,001501
627,000000	0,001676
626,000000	0,001506
625,000000	0,001922
624,000000	0,001702
623,000000	0,001502
622,000000	0,001635
621,000000	0,001552
620,000000	0,001685
619,000000	0,001452
618,000000	0,001415
617,000000	0,001672
616,000000	0,001470
615,000000	0,001686
614,000000	0,001819
613,000000	0,001761
612,000000	0,001436
611,000000	0,001673
610,000000	0,001640
609,000000	0,001478
608,000000	0,001956
607,000000	0,001857
606,000000	0,001810
605,000000	0,001585
604,000000	0,001718
603,000000	0,001701
602,000000	0,001785
601,000000	0,002009
600,000000	0,001827
599,000000	0,001926
598,000000	0,001901
597,000000	0,001960
596,000000	0,001893
595,000000	0,002102
594,000000	0,002010
593,000000	0,001873
592,000000	0,001840
591,000000	0,001716
590,000000	0,002209
589,000000	0,002081
588,000000	0,002141
587,000000	0,001884
586,000000	0,002107
585,000000	0,002230
584,000000	0,002387
583,000000	0,002180
582,000000	0,002153
581,000000	0,002170
580,000000	0,002210
579,000000	0,002220
578,000000	0,002454
577,000000	0,002221
576,000000	0,002340
575,000000	0,002262
574,000000	0,002369
573,000000	0,002019
572,000000	0,002483
571,000000	0,002420
570,000000	0,002130
569,000000	0,002737
568,000000	0,002249
567,000000	0,002542
566,000000	0,002581
565,000000	0,002767
564,000000	0,002203
563,000000	0,002725
562,000000	0,002967
561,000000	0,002772
560,000000	0,002558
559,000000	0,003005
558,000000	0,002922
557,000000	0,003174
556,000000	0,002916
555,000000	0,003106
554,000000	0,003014
553,000000	0,003108
552,000000	0,003299
551,000000	0,003303
550,000000	0,003193
549,000000	0,003188
548,000000	0,003617
547,000000	0,003570
546,000000	0,003539
545,000000	0,003705
544,000000	0,003458
543,000000	0,003599
542,000000	0,003467
541,000000	0,004075
540,000000	0,003978
539,000000	0,004265
538,000000	0,004110
537,000000	0,004070
536,000000	0,004300
535,000000	0,004495
534,000000	0,004765
533,000000	0,004696
532,000000	0,004944
531,000000	0,004757
530,000000	0,005024
529,000000	0,004940
528,000000	0,004936
527,000000	0,005395
526,000000	0,005123
525,000000	0,005332
524,000000	0,005626
523,000000	0,005422
522,000000	0,005857
521,000000	0,005969
520,000000	0,006297
519,000000	0,006447
518,000000	0,006452
517,000000	0,006636
516,000000	0,006806
515,000000	0,006950
514,000000	0,007119
513,000000	0,007383
512,000000	0,007431
511,000000	0,007689
510,000000	0,007812
509,000000	0,008033
508,000000	0,008433
507,000000	0,008551
506,000000	0,008634
505,000000	0,008991
504,000000	0,009173
503,000000	0,009519
502,000000	0,009778
501,000000	0,010185
500,000000	0,010012
499,000000	0,010721
498,000000	0,010687
497,000000	0,010835
496,000000	0,011153
495,000000	0,011489
494,000000	0,011614
493,000000	0,012026
492,000000	0,012384
491,000000	0,012622
490,000000	0,012971
489,000000	0,013161
488,000000	0,014037
487,000000	0,014229
486,000000	0,014194
485,000000	0,014916
484,000000	0,014974
483,000000	0,015217
482,000000	0,015956
481,000000	0,016024
480,000000	0,016410
479,000000	0,016729
478,000000	0,017088
477,000000	0,017523
476,000000	0,018082
475,000000	0,017965
474,000000	0,018490
473,000000	0,019005
472,000000	0,019610
471,000000	0,019749
470,000000	0,020165
469,000000	0,020087
468,000000	0,020529
467,000000	0,021236
466,000000	0,021367
465,000000	0,022214
464,000000	0,022091
463,000000	0,022602
462,000000	0,023002
461,000000	0,023101
460,000000	0,023777
459,000000	0,024487
458,000000	0,024440
457,000000	0,024959
456,000000	0,025503
455,000000	0,025826
454,000000	0,026261
453,000000	0,026161
452,000000	0,026576
451,000000	0,027230
450,000000	0,027571
449,000000	0,027615
448,000000	0,028133
447,000000	0,028776
446,000000	0,028869
445,000000	0,029537
444,000000	0,029303
443,000000	0,029694
442,000000	0,029825
441,000000	0,029948
440,000000	0,030961
439,000000	0,030933
438,000000	0,031299
437,000000	0,031627
436,000000	0,032013
435,000000	0,031850
434,000000	0,032193
433,000000	0,032286
432,000000	0,033147
431,000000	0,033930
430,000000	0,033611
429,000000	0,034297
428,000000	0,034658
427,000000	0,034443
426,000000	0,035013
425,000000	0,035249
424,000000	0,035424
423,000000	0,036002
422,000000	0,035822
421,000000	0,036583
420,000000	0,036906
419,000000	0,037066
418,000000	0,037923
417,000000	0,038331
416,000000	0,038627
415,000000	0,039108
414,000000	0,039698
413,000000	0,040296
412,000000	0,041046
411,000000	0,041565
410,000000	0,042204
409,000000	0,043096
408,000000	0,044113
407,000000	0,044963
406,000000	0,046059
405,000000	0,046849
404,000000	0,048223
403,000000	0,048995
402,000000	0,050611
401,000000	0,051453
400,000000	0,053224
399,000000	0,054308
398,000000	0,055913
397,000000	0,057574
396,000000	0,058964
395,000000	0,060295
394,000000	0,061427
393,000000	0,063391
392,000000	0,065594
391,000000	0,067401
390,000000	0,069435
