PE UV       SUBTECH     SPECTRUM    ASCII       PEDS        4.00        
   -1
branco.Sample.Raw.asc
20/10/03
15:17:55.00
20/10/03
15:17:55.00
Analyst

390,000000
1
Lambda 25
501s11081509
PerkinElmer UV WinLab 6.0.3.0730 / Lambda25 1.27

480
2
1
0
0
Both on
1
1
1
None
0
0
0
0
 
 
0
0
0
0
0
 
 
 
0
 
0
326
0
 
0
 
 
 
0
0
0
 
0
 
 
 
0
 
 
0
0
0
0
0
 
 
 
 
0
0


#HDR
-1
-1
#GR
nm
A
1.0
0.0
700,000000
-1,000000
311
8
0,001466
-0,000190
#DATA
700,000000	0,000033
699,000000	0,000287
698,000000	0,000041
697,000000	0,000176
696,000000	0,000135
695,000000	0,000156
694,000000	0,000193
693,000000	0,000082
692,000000	0,000205
691,000000	0,000066
690,000000	0,000444
689,000000	0,000259
688,000000	0,000169
687,000000	0,000251
686,000000	0,000082
685,000000	0,000231
684,000000	0,000321
683,000000	0,000074
682,000000	0,000206
681,000000	-0,000165
680,000000	0,000227
679,000000	0,000136
678,000000	0,000338
677,000000	-0,000161
676,000000	0,000264
675,000000	0,000297
674,000000	0,000413
673,000000	0,000545
672,000000	-0,000058
671,000000	0,000863
670,000000	0,000867
669,000000	0,000504
668,000000	0,000450
667,000000	0,000467
666,000000	0,000492
665,000000	0,000256
664,000000	0,000112
663,000000	0,000451
662,000000	0,000273
661,000000	0,000335
660,000000	0,000195
659,000000	0,000385
658,000000	0,000273
657,000000	0,000423
656,000000	0,000340
655,000000	0,000253
654,000000	0,000174
653,000000	0,000352
652,000000	0,000286
651,000000	0,000377
650,000000	0,000713
649,000000	0,000207
648,000000	0,000083
647,000000	0,000373
646,000000	0,000278
645,000000	0,000183
644,000000	0,000166
643,000000	0,000071
642,000000	0,000129
641,000000	0,000502
640,000000	0,000648
639,000000	0,000062
638,000000	0,000332
637,000000	0,000046
636,000000	0,000282
635,000000	0,000133
634,000000	0,000170
633,000000	0,000212
632,000000	0,000444
631,000000	0,000324
630,000000	0,000162
629,000000	0,000436
628,000000	0,000133
627,000000	0,000565
626,000000	0,000233
625,000000	0,000440
624,000000	0,000515
623,000000	0,000216
622,000000	0,000378
621,000000	-0,000112
620,000000	0,000503
619,000000	0,000424
618,000000	0,000133
617,000000	0,000420
616,000000	-0,000004
615,000000	0,000416
614,000000	0,000432
613,000000	0,000382
612,000000	0,000083
611,000000	0,000341
610,000000	0,000266
609,000000	0,000125
608,000000	0,000598
607,000000	0,000316
606,000000	0,000399
605,000000	0,000432
604,000000	0,000370
603,000000	0,000519
602,000000	0,000195
601,000000	0,000424
600,000000	0,000071
599,000000	0,000473
598,000000	0,000320
597,000000	0,000378
596,000000	0,000586
595,000000	0,000257
594,000000	0,000440
593,000000	0,000349
592,000000	0,000420
591,000000	0,000175
590,000000	0,000366
589,000000	0,000504
588,000000	0,000225
587,000000	0,000501
586,000000	0,000284
585,000000	0,000748
584,000000	0,000627
583,000000	0,000645
582,000000	0,000494
581,000000	0,000436
580,000000	0,000479
579,000000	0,000492
578,000000	0,000884
577,000000	0,000476
576,000000	0,000485
575,000000	0,000452
574,000000	0,000532
573,000000	0,000524
572,000000	0,000524
571,000000	0,000368
570,000000	-0,000190
569,000000	0,000639
568,000000	0,000275
567,000000	0,000631
566,000000	0,000792
565,000000	0,000775
564,000000	0,000343
563,000000	0,000432
562,000000	0,000512
561,000000	0,000724
560,000000	0,000407
559,000000	0,000597
558,000000	0,000301
557,000000	0,000630
556,000000	0,000542
555,000000	0,000863
554,000000	0,000703
553,000000	0,000381
552,000000	0,000737
551,000000	0,000631
550,000000	0,000656
549,000000	0,000554
548,000000	0,000516
547,000000	0,000639
546,000000	0,000728
545,000000	0,000639
544,000000	0,000469
543,000000	0,000639
542,000000	0,000622
541,000000	0,000749
540,000000	0,000275
539,000000	0,000609
538,000000	0,000435
537,000000	0,000499
536,000000	0,000693
535,000000	0,000850
534,000000	0,000829
533,000000	0,000672
532,000000	0,000482
531,000000	0,000478
530,000000	0,000520
529,000000	0,000647
528,000000	0,000626
527,000000	0,000934
526,000000	0,000490
525,000000	0,000469
524,000000	0,000849
523,000000	0,000368
522,000000	0,000651
521,000000	0,000482
520,000000	0,000655
519,000000	0,000984
518,000000	0,000824
517,000000	0,000629
516,000000	0,000794
515,000000	0,000806
514,000000	0,000528
513,000000	0,000886
512,000000	0,000540
511,000000	0,000713
510,000000	0,000738
509,000000	0,000831
508,000000	0,000940
507,000000	0,001138
506,000000	0,000565
505,000000	0,000818
504,000000	0,000375
503,000000	0,000779
502,000000	0,000644
501,000000	0,000783
500,000000	0,000442
499,000000	0,000635
498,000000	0,000619
497,000000	0,000686
496,000000	0,000589
495,000000	0,000702
494,000000	0,000715
493,000000	0,000517
492,000000	0,000559
491,000000	0,000471
490,000000	0,000790
489,000000	0,000601
488,000000	0,000928
487,000000	0,000861
486,000000	0,000722
485,000000	0,000835
484,000000	0,000756
483,000000	0,000441
482,000000	0,001020
481,000000	0,000609
480,000000	0,000894
479,000000	0,000520
478,000000	0,000554
477,000000	0,000760
476,000000	0,000688
475,000000	0,000382
474,000000	0,000583
473,000000	0,000924
472,000000	0,001045
471,000000	0,001160
470,000000	0,000836
469,000000	0,000526
468,000000	0,000492
467,000000	0,000639
466,000000	0,000669
465,000000	0,000968
464,000000	0,000704
463,000000	0,000784
462,000000	0,000776
461,000000	0,000578
460,000000	0,000916
459,000000	0,000802
458,000000	0,000870
457,000000	0,000989
456,000000	0,000790
455,000000	0,000664
454,000000	0,000639
453,000000	0,000664
452,000000	0,000571
451,000000	0,000690
450,000000	0,000749
449,000000	0,000491
448,000000	0,000674
447,000000	0,000924
446,000000	0,000763
445,000000	0,000839
444,000000	0,000768
443,000000	0,001376
442,000000	0,000527
441,000000	0,001013
440,000000	0,000953
439,000000	0,000421
438,000000	0,000933
437,000000	0,001002
436,000000	0,000959
435,000000	0,000426
434,000000	0,001046
433,000000	0,000683
432,000000	0,000619
431,000000	0,001412
430,000000	0,000743
429,000000	0,001294
428,000000	0,000615
427,000000	0,000470
426,000000	0,000607
425,000000	0,000812
424,000000	0,001466
423,000000	0,001162
422,000000	0,000564
421,000000	0,000658
420,000000	0,000923
419,000000	0,000774
418,000000	0,001132
417,000000	0,001200
416,000000	0,000919
415,000000	0,000867
414,000000	0,001012
413,000000	0,001029
412,000000	0,000922
411,000000	0,000952
410,000000	0,000986
409,000000	0,001105
408,000000	0,001045
407,000000	0,001396
406,000000	0,001224
405,000000	0,000994
404,000000	0,000959
403,000000	0,001036
402,000000	0,001155
401,000000	0,001100
400,000000	0,001334
399,000000	0,001074
398,000000	0,001103
397,000000	0,001260
396,000000	0,001214
395,000000	0,001068
394,000000	0,000792
393,000000	0,000940
392,000000	0,001076
391,000000	0,001391
390,000000	0,001038
