PE UV       SUBTECH     SPECTRUM    ASCII       PEDS        4.00        
   -1
1.Sample.Raw.asc
20/11/02
13:42:31.00
20/11/02
13:42:31.00
Analyst

390,000000
1
Lambda 25
501s11081509
PerkinElmer UV WinLab 6.0.3.0730 / Lambda25 1.27

480
2
1
0
0
Both on
1
1
1
None
0
0
0
0
 
 
0
0
0
0
0
 
 
 
0
 
0
326
0
 
0
 
 
 
0
0
0
 
0
 
 
 
0
 
 
0
0
0
0
0
 
 
 
 
0
0


#HDR
-1
-1
#GR
nm
A
1.0
0.0
700,000000
-1,000000
311
8
0,477572
0,004155
#DATA
700,000000	0,004238
699,000000	0,004155
698,000000	0,004251
697,000000	0,004264
696,000000	0,004409
695,000000	0,004453
694,000000	0,004363
693,000000	0,004380
692,000000	0,004511
691,000000	0,004462
690,000000	0,004520
689,000000	0,004754
688,000000	0,004735
687,000000	0,004442
686,000000	0,004546
685,000000	0,004802
684,000000	0,004459
683,000000	0,004769
682,000000	0,004961
681,000000	0,004902
680,000000	0,004675
679,000000	0,004804
678,000000	0,004740
677,000000	0,005077
676,000000	0,004880
675,000000	0,005265
674,000000	0,004726
673,000000	0,004950
672,000000	0,004914
671,000000	0,004798
670,000000	0,004854
669,000000	0,004849
668,000000	0,004917
667,000000	0,004966
666,000000	0,005118
665,000000	0,005244
664,000000	0,004920
663,000000	0,005339
662,000000	0,005192
661,000000	0,004966
660,000000	0,005344
659,000000	0,005489
658,000000	0,005467
657,000000	0,005380
656,000000	0,005426
655,000000	0,005419
654,000000	0,005315
653,000000	0,005422
652,000000	0,005559
651,000000	0,005941
650,000000	0,005821
649,000000	0,005801
648,000000	0,006111
647,000000	0,005882
646,000000	0,005904
645,000000	0,006153
644,000000	0,006091
643,000000	0,006002
642,000000	0,006322
641,000000	0,006515
640,000000	0,005870
639,000000	0,006378
638,000000	0,006569
637,000000	0,006386
636,000000	0,006558
635,000000	0,006889
634,000000	0,007040
633,000000	0,006647
632,000000	0,006518
631,000000	0,007097
630,000000	0,006910
629,000000	0,006850
628,000000	0,007131
627,000000	0,007049
626,000000	0,007053
625,000000	0,007285
624,000000	0,007251
623,000000	0,007504
622,000000	0,007182
621,000000	0,007546
620,000000	0,007584
619,000000	0,007681
618,000000	0,007422
617,000000	0,007860
616,000000	0,007869
615,000000	0,007433
614,000000	0,007874
613,000000	0,008368
612,000000	0,007906
611,000000	0,007883
610,000000	0,008401
609,000000	0,008267
608,000000	0,008158
607,000000	0,008308
606,000000	0,008541
605,000000	0,008300
604,000000	0,008646
603,000000	0,008981
602,000000	0,009100
601,000000	0,008771
600,000000	0,009104
599,000000	0,009198
598,000000	0,008825
597,000000	0,008979
596,000000	0,009429
595,000000	0,009637
594,000000	0,009312
593,000000	0,009534
592,000000	0,009629
591,000000	0,009492
590,000000	0,009356
589,000000	0,009616
588,000000	0,009828
587,000000	0,009839
586,000000	0,009873
585,000000	0,010088
584,000000	0,010060
583,000000	0,009987
582,000000	0,010350
581,000000	0,010354
580,000000	0,010527
579,000000	0,010313
578,000000	0,010767
577,000000	0,010768
576,000000	0,011009
575,000000	0,010767
574,000000	0,011097
573,000000	0,011188
572,000000	0,011161
571,000000	0,011475
570,000000	0,011573
569,000000	0,011572
568,000000	0,011577
567,000000	0,011687
566,000000	0,011806
565,000000	0,011745
564,000000	0,011836
563,000000	0,011813
562,000000	0,012346
561,000000	0,012065
560,000000	0,012561
559,000000	0,012455
558,000000	0,012651
557,000000	0,012610
556,000000	0,012803
555,000000	0,013133
554,000000	0,012744
553,000000	0,013136
552,000000	0,013131
551,000000	0,013504
550,000000	0,013471
549,000000	0,013909
548,000000	0,013601
547,000000	0,013697
546,000000	0,013915
545,000000	0,014009
544,000000	0,014124
543,000000	0,013901
542,000000	0,014505
541,000000	0,014665
540,000000	0,014367
539,000000	0,014736
538,000000	0,014944
537,000000	0,014646
536,000000	0,014933
535,000000	0,015556
534,000000	0,015527
533,000000	0,015305
532,000000	0,015496
531,000000	0,015890
530,000000	0,015634
529,000000	0,015902
528,000000	0,016276
527,000000	0,016462
526,000000	0,016039
525,000000	0,016466
524,000000	0,016628
523,000000	0,016516
522,000000	0,016701
521,000000	0,017135
520,000000	0,017126
519,000000	0,017299
518,000000	0,017252
517,000000	0,017483
516,000000	0,017579
515,000000	0,017432
514,000000	0,018025
513,000000	0,018213
512,000000	0,018129
511,000000	0,018389
510,000000	0,018462
509,000000	0,018711
508,000000	0,018380
507,000000	0,018976
506,000000	0,018968
505,000000	0,019029
504,000000	0,019504
503,000000	0,019749
502,000000	0,019490
501,000000	0,019852
500,000000	0,019852
499,000000	0,020207
498,000000	0,020109
497,000000	0,020435
496,000000	0,021129
495,000000	0,020931
494,000000	0,021350
493,000000	0,021571
492,000000	0,021594
491,000000	0,021917
490,000000	0,021722
489,000000	0,022143
488,000000	0,022273
487,000000	0,022720
486,000000	0,022551
485,000000	0,023106
484,000000	0,023373
483,000000	0,023548
482,000000	0,023676
481,000000	0,023984
480,000000	0,024605
479,000000	0,024436
478,000000	0,024922
477,000000	0,025100
476,000000	0,025341
475,000000	0,025541
474,000000	0,025883
473,000000	0,026355
472,000000	0,026373
471,000000	0,026785
470,000000	0,027291
469,000000	0,027659
468,000000	0,027532
467,000000	0,028131
466,000000	0,028461
465,000000	0,028364
464,000000	0,029294
463,000000	0,029701
462,000000	0,030194
461,000000	0,030155
460,000000	0,030995
459,000000	0,031193
458,000000	0,031152
457,000000	0,031847
456,000000	0,033437
455,000000	0,033153
454,000000	0,033763
453,000000	0,034239
452,000000	0,034695
451,000000	0,035427
450,000000	0,036530
449,000000	0,036954
448,000000	0,037465
447,000000	0,038060
446,000000	0,038869
445,000000	0,039300
444,000000	0,039696
443,000000	0,040736
442,000000	0,041976
441,000000	0,042540
440,000000	0,043463
439,000000	0,044288
438,000000	0,045239
437,000000	0,045876
436,000000	0,047198
435,000000	0,048189
434,000000	0,049353
433,000000	0,050311
432,000000	0,051731
431,000000	0,053489
430,000000	0,054478
429,000000	0,055828
428,000000	0,057466
427,000000	0,059295
426,000000	0,061113
425,000000	0,062984
424,000000	0,064950
423,000000	0,066434
422,000000	0,068977
421,000000	0,070148
420,000000	0,072502
419,000000	0,075392
418,000000	0,078675
417,000000	0,081149
416,000000	0,084607
415,000000	0,088594
414,000000	0,092430
413,000000	0,096285
412,000000	0,101244
411,000000	0,106681
410,000000	0,112326
409,000000	0,118309
408,000000	0,125367
407,000000	0,132805
406,000000	0,141402
405,000000	0,150088
404,000000	0,160138
403,000000	0,171441
402,000000	0,183503
401,000000	0,197284
400,000000	0,212322
399,000000	0,229966
398,000000	0,247920
397,000000	0,266972
396,000000	0,289060
395,000000	0,313492
394,000000	0,340232
393,000000	0,369775
392,000000	0,403123
391,000000	0,439665
390,000000	0,477572
