PE UV       SUBTECH     SPECTRUM    ASCII       PEDS        4.00        
   -1
10.Sample.Raw.asc
20/11/02
13:24:25.00
20/11/02
13:24:25.00
Analyst

390,000000
1
Lambda 25
501s11081509
PerkinElmer UV WinLab 6.0.3.0730 / Lambda25 1.27

480
2
1
0
0
Both on
1
1
1
None
0
0
0
0
 
 
0
0
0
0
0
 
 
 
0
 
0
326
0
 
0
 
 
 
0
0
0
 
0
 
 
 
0
 
 
0
0
0
0
0
 
 
 
 
0
0


#HDR
-1
-1
#GR
nm
A
1.0
0.0
700,000000
-1,000000
311
8
1,261861
-0,000496
#DATA
700,000000	0,000033
699,000000	-0,000152
698,000000	-0,000107
697,000000	-0,000139
696,000000	0,000094
695,000000	-0,000094
694,000000	-0,000029
693,000000	-0,000062
692,000000	0,000127
691,000000	-0,000131
690,000000	-0,000111
689,000000	-0,000062
688,000000	0,000000
687,000000	-0,000214
686,000000	-0,000193
685,000000	-0,000103
684,000000	-0,000193
683,000000	-0,000210
682,000000	0,000103
681,000000	-0,000016
680,000000	-0,000144
679,000000	-0,000157
678,000000	-0,000173
677,000000	-0,000173
676,000000	0,000037
675,000000	0,000243
674,000000	0,000050
673,000000	-0,000202
672,000000	-0,000384
671,000000	-0,000021
670,000000	-0,000235
669,000000	-0,000083
668,000000	-0,000240
667,000000	-0,000281
666,000000	-0,000496
665,000000	-0,000182
664,000000	-0,000310
663,000000	-0,000108
662,000000	-0,000442
661,000000	-0,000232
660,000000	-0,000066
659,000000	-0,000103
658,000000	-0,000224
657,000000	-0,000257
656,000000	-0,000389
655,000000	-0,000294
654,000000	-0,000439
653,000000	-0,000182
652,000000	-0,000124
651,000000	0,000095
650,000000	0,000079
649,000000	0,000000
648,000000	-0,000021
647,000000	0,000075
646,000000	-0,000058
645,000000	0,000079
644,000000	0,000091
643,000000	0,000129
642,000000	0,000125
641,000000	0,000403
640,000000	-0,000042
639,000000	0,000228
638,000000	0,000129
637,000000	-0,000042
636,000000	0,000370
635,000000	0,000258
634,000000	0,000241
633,000000	0,000083
632,000000	0,000046
631,000000	0,000324
630,000000	0,000062
629,000000	0,000150
628,000000	0,000303
627,000000	-0,000075
626,000000	0,000245
625,000000	0,000237
624,000000	0,000175
623,000000	0,000216
622,000000	0,000283
621,000000	0,000341
620,000000	0,000208
619,000000	0,000403
618,000000	0,000324
617,000000	0,000195
616,000000	0,000175
615,000000	0,000162
614,000000	0,000179
613,000000	0,000391
612,000000	0,000241
611,000000	0,000291
610,000000	0,000566
609,000000	0,000279
608,000000	0,000275
607,000000	0,000420
606,000000	0,000287
605,000000	0,000300
604,000000	0,000516
603,000000	0,000703
602,000000	0,000328
601,000000	0,000416
600,000000	0,000873
599,000000	0,000690
598,000000	0,000108
597,000000	0,000487
596,000000	0,000607
595,000000	0,000848
594,000000	0,000528
593,000000	0,000591
592,000000	0,000466
591,000000	0,000337
590,000000	0,000442
589,000000	0,000483
588,000000	0,000501
587,000000	0,000459
586,000000	0,000597
585,000000	0,000213
584,000000	0,000079
583,000000	0,000603
582,000000	0,000881
581,000000	0,000495
580,000000	0,000702
579,000000	0,000635
578,000000	0,000577
577,000000	0,000337
576,000000	0,000848
575,000000	0,000596
574,000000	0,000545
573,000000	0,000651
572,000000	0,000478
571,000000	0,001075
570,000000	0,000563
569,000000	0,000563
568,000000	0,000690
567,000000	0,000708
566,000000	0,000902
565,000000	0,001242
564,000000	0,001094
563,000000	0,000895
562,000000	0,001361
561,000000	0,000768
560,000000	0,001022
559,000000	0,001073
558,000000	0,001365
557,000000	0,001188
556,000000	0,001170
555,000000	0,001446
554,000000	0,001218
553,000000	0,001158
552,000000	0,001340
551,000000	0,001887
550,000000	0,001417
549,000000	0,001585
548,000000	0,001522
547,000000	0,001810
546,000000	0,001671
545,000000	0,001526
544,000000	0,001929
543,000000	0,001730
542,000000	0,001784
541,000000	0,002187
540,000000	0,001836
539,000000	0,001802
538,000000	0,002229
537,000000	0,002230
536,000000	0,002238
535,000000	0,002309
534,000000	0,002662
533,000000	0,002391
532,000000	0,002484
531,000000	0,002590
530,000000	0,002651
529,000000	0,002817
528,000000	0,002705
527,000000	0,003131
526,000000	0,002987
525,000000	0,003415
524,000000	0,003194
523,000000	0,003208
522,000000	0,003369
521,000000	0,003823
520,000000	0,003611
519,000000	0,003645
518,000000	0,003813
517,000000	0,003777
516,000000	0,004122
515,000000	0,004279
514,000000	0,004597
513,000000	0,004644
512,000000	0,005150
511,000000	0,005255
510,000000	0,005143
509,000000	0,004954
508,000000	0,005169
507,000000	0,005631
506,000000	0,005542
505,000000	0,005762
504,000000	0,006268
503,000000	0,006433
502,000000	0,006142
501,000000	0,006558
500,000000	0,006972
499,000000	0,006990
498,000000	0,007483
497,000000	0,008000
496,000000	0,008288
495,000000	0,008370
494,000000	0,009326
493,000000	0,009530
492,000000	0,009672
491,000000	0,010616
490,000000	0,010837
489,000000	0,011299
488,000000	0,011762
487,000000	0,012330
486,000000	0,012987
485,000000	0,013519
484,000000	0,014237
483,000000	0,015010
482,000000	0,015714
481,000000	0,015987
480,000000	0,017108
479,000000	0,017886
478,000000	0,018406
477,000000	0,019087
476,000000	0,020109
475,000000	0,020687
474,000000	0,021149
473,000000	0,022039
472,000000	0,022967
471,000000	0,023517
470,000000	0,024588
469,000000	0,025322
468,000000	0,025997
467,000000	0,027032
466,000000	0,028241
465,000000	0,029175
464,000000	0,030101
463,000000	0,031062
462,000000	0,032120
461,000000	0,032902
460,000000	0,034177
459,000000	0,035559
458,000000	0,037053
457,000000	0,038144
456,000000	0,040402
455,000000	0,041307
454,000000	0,042712
453,000000	0,044189
452,000000	0,045764
451,000000	0,047892
450,000000	0,049520
449,000000	0,051274
448,000000	0,052846
447,000000	0,054880
446,000000	0,056259
445,000000	0,058304
444,000000	0,060281
443,000000	0,062506
442,000000	0,065145
441,000000	0,067604
440,000000	0,069686
439,000000	0,071832
438,000000	0,074665
437,000000	0,077183
436,000000	0,079796
435,000000	0,082882
434,000000	0,086275
433,000000	0,089447
432,000000	0,093199
431,000000	0,097277
430,000000	0,101604
429,000000	0,106326
428,000000	0,110634
427,000000	0,116549
426,000000	0,123280
425,000000	0,128901
424,000000	0,135532
423,000000	0,142951
422,000000	0,150985
421,000000	0,158447
420,000000	0,167539
419,000000	0,178068
418,000000	0,189741
417,000000	0,201360
416,000000	0,214548
415,000000	0,229883
414,000000	0,246059
413,000000	0,263596
412,000000	0,283380
411,000000	0,304696
410,000000	0,328683
409,000000	0,355515
408,000000	0,385251
407,000000	0,418407
406,000000	0,455317
405,000000	0,496664
404,000000	0,542740
403,000000	0,593021
402,000000	0,651444
401,000000	0,714848
400,000000	0,781085
399,000000	0,854622
398,000000	0,924261
397,000000	0,993666
396,000000	1,061442
395,000000	1,119793
394,000000	1,169233
393,000000	1,209769
392,000000	1,235802
391,000000	1,252607
390,000000	1,261861
