PE UV       SUBTECH     SPECTRUM    ASCII       PEDS        4.00        
   -1
100% or 0 Absorbance Baseline.Correction.Raw.asc
20/11/02
13:10:18.00
20/11/02
13:10:18.00
Analyst

390,000000
1
Lambda 25
501s11081509
PerkinElmer UV WinLab 6.0.3.0730 / Lambda25 1.27

480
0
1
0
0
Both on
0
1
1
None
0
0
0
0
 
 
0
0
0
0
0
 
 
 
0
 
0
326
0
 
0
 
 
 
0
0
0
 
0
 
 
 
0
 
 
0
0
0
0
0
 
 
 
 
0
0


#HDR
-1
-1
#GR
nm
A
1.0
0.0
700,000000
-1,000000
311
8
-0,006667
-0,025552
#DATA
700,000000	-0,025552
699,000000	-0,025232
698,000000	-0,025052
697,000000	-0,025031
696,000000	-0,025068
695,000000	-0,024744
694,000000	-0,024662
693,000000	-0,024576
692,000000	-0,024379
691,000000	-0,024276
690,000000	-0,024293
689,000000	-0,024153
688,000000	-0,024030
687,000000	-0,023796
686,000000	-0,023808
685,000000	-0,023594
684,000000	-0,023429
683,000000	-0,023170
682,000000	-0,023121
681,000000	-0,022808
680,000000	-0,022676
679,000000	-0,022692
678,000000	-0,022399
677,000000	-0,022470
676,000000	-0,022560
675,000000	-0,022441
674,000000	-0,021838
673,000000	-0,021917
672,000000	-0,021764
671,000000	-0,021681
670,000000	-0,021586
669,000000	-0,021582
668,000000	-0,021508
667,000000	-0,021251
666,000000	-0,021160
665,000000	-0,021462
664,000000	-0,020908
663,000000	-0,021214
662,000000	-0,021218
661,000000	-0,020875
660,000000	-0,020804
659,000000	-0,020920
658,000000	-0,020738
657,000000	-0,020655
656,000000	-0,020602
655,000000	-0,020531
654,000000	-0,020461
653,000000	-0,020307
652,000000	-0,020415
651,000000	-0,020432
650,000000	-0,020254
649,000000	-0,020171
648,000000	-0,020233
647,000000	-0,020084
646,000000	-0,019748
645,000000	-0,019959
644,000000	-0,019876
643,000000	-0,019665
642,000000	-0,019623
641,000000	-0,019938
640,000000	-0,019461
639,000000	-0,019577
638,000000	-0,019449
637,000000	-0,019282
636,000000	-0,019328
635,000000	-0,019486
634,000000	-0,019569
633,000000	-0,019320
632,000000	-0,019183
631,000000	-0,019428
630,000000	-0,019249
629,000000	-0,019062
628,000000	-0,019179
627,000000	-0,019017
626,000000	-0,019046
625,000000	-0,019012
624,000000	-0,019037
623,000000	-0,019096
622,000000	-0,019158
621,000000	-0,019133
620,000000	-0,019116
619,000000	-0,019100
618,000000	-0,018950
617,000000	-0,019054
616,000000	-0,019025
615,000000	-0,018817
614,000000	-0,018962
613,000000	-0,019062
612,000000	-0,018863
611,000000	-0,018730
610,000000	-0,019112
609,000000	-0,018817
608,000000	-0,018771
607,000000	-0,018888
606,000000	-0,018879
605,000000	-0,018838
604,000000	-0,018938
603,000000	-0,019154
602,000000	-0,019150
601,000000	-0,019029
600,000000	-0,019345
599,000000	-0,019324
598,000000	-0,018913
597,000000	-0,019033
596,000000	-0,019228
595,000000	-0,019253
594,000000	-0,019145
593,000000	-0,019116
592,000000	-0,018863
591,000000	-0,018676
590,000000	-0,018322
589,000000	-0,018105
588,000000	-0,017772
587,000000	-0,017472
586,000000	-0,017100
585,000000	-0,016695
584,000000	-0,016222
583,000000	-0,015888
582,000000	-0,015582
581,000000	-0,015045
580,000000	-0,014676
579,000000	-0,014067
578,000000	-0,013499
577,000000	-0,013124
576,000000	-0,012964
575,000000	-0,012280
574,000000	-0,012103
573,000000	-0,011735
572,000000	-0,011621
571,000000	-0,011744
570,000000	-0,011473
569,000000	-0,011334
568,000000	-0,011317
567,000000	-0,011113
566,000000	-0,011228
565,000000	-0,011211
564,000000	-0,010762
563,000000	-0,010660
562,000000	-0,011194
561,000000	-0,010503
560,000000	-0,010698
559,000000	-0,010745
558,000000	-0,011185
557,000000	-0,010834
556,000000	-0,010919
555,000000	-0,011135
554,000000	-0,010703
553,000000	-0,010876
552,000000	-0,010906
551,000000	-0,011257
550,000000	-0,010936
549,000000	-0,011287
548,000000	-0,011240
547,000000	-0,011376
546,000000	-0,011236
545,000000	-0,011321
544,000000	-0,011405
543,000000	-0,011287
542,000000	-0,011524
541,000000	-0,011706
540,000000	-0,011317
539,000000	-0,011274
538,000000	-0,011731
537,000000	-0,011486
536,000000	-0,011672
535,000000	-0,011997
534,000000	-0,011934
533,000000	-0,011663
532,000000	-0,011714
531,000000	-0,011854
530,000000	-0,011541
529,000000	-0,011634
528,000000	-0,011731
527,000000	-0,011786
526,000000	-0,011600
525,000000	-0,011926
524,000000	-0,011811
523,000000	-0,011655
522,000000	-0,011849
521,000000	-0,011989
520,000000	-0,011879
519,000000	-0,011951
518,000000	-0,012141
517,000000	-0,011968
516,000000	-0,011993
515,000000	-0,012031
514,000000	-0,012280
513,000000	-0,012209
512,000000	-0,012407
511,000000	-0,012521
510,000000	-0,012652
509,000000	-0,012702
508,000000	-0,012626
507,000000	-0,012871
506,000000	-0,012867
505,000000	-0,012972
504,000000	-0,013183
503,000000	-0,013313
502,000000	-0,013014
501,000000	-0,013195
500,000000	-0,013284
499,000000	-0,013238
498,000000	-0,013457
497,000000	-0,013558
496,000000	-0,013718
495,000000	-0,013701
494,000000	-0,013983
493,000000	-0,013894
492,000000	-0,013865
491,000000	-0,014205
490,000000	-0,014121
489,000000	-0,014113
488,000000	-0,014079
487,000000	-0,014336
486,000000	-0,014348
485,000000	-0,014243
484,000000	-0,014546
483,000000	-0,014432
482,000000	-0,014357
481,000000	-0,014403
480,000000	-0,014735
479,000000	-0,014735
478,000000	-0,014558
477,000000	-0,014626
476,000000	-0,014840
475,000000	-0,014542
474,000000	-0,014638
473,000000	-0,014579
472,000000	-0,014437
471,000000	-0,014344
470,000000	-0,014403
469,000000	-0,014113
468,000000	-0,013659
467,000000	-0,013629
466,000000	-0,013532
465,000000	-0,012964
464,000000	-0,013073
463,000000	-0,012740
462,000000	-0,012660
461,000000	-0,012259
460,000000	-0,012116
459,000000	-0,011955
458,000000	-0,011587
457,000000	-0,011355
456,000000	-0,011896
455,000000	-0,011338
454,000000	-0,011143
453,000000	-0,011194
452,000000	-0,011050
451,000000	-0,011033
450,000000	-0,011359
449,000000	-0,010940
448,000000	-0,010592
447,000000	-0,010457
446,000000	-0,010275
445,000000	-0,009986
444,000000	-0,009680
443,000000	-0,009527
442,000000	-0,009515
441,000000	-0,009081
440,000000	-0,008885
439,000000	-0,008647
438,000000	-0,008370
437,000000	-0,007918
436,000000	-0,007859
435,000000	-0,007812
434,000000	-0,007534
433,000000	-0,007487
432,000000	-0,007458
431,000000	-0,007539
430,000000	-0,007082
429,000000	-0,007283
428,000000	-0,007022
427,000000	-0,006919
426,000000	-0,007231
425,000000	-0,007210
424,000000	-0,006924
423,000000	-0,006975
422,000000	-0,007116
421,000000	-0,006667
420,000000	-0,006778
419,000000	-0,006966
418,000000	-0,007009
417,000000	-0,006915
416,000000	-0,006954
415,000000	-0,007389
414,000000	-0,007355
413,000000	-0,007090
412,000000	-0,007385
411,000000	-0,007419
410,000000	-0,007483
409,000000	-0,007577
408,000000	-0,007641
407,000000	-0,007675
406,000000	-0,007961
405,000000	-0,007999
404,000000	-0,008093
403,000000	-0,007961
402,000000	-0,007948
401,000000	-0,008255
400,000000	-0,008097
399,000000	-0,008132
398,000000	-0,008230
397,000000	-0,008438
396,000000	-0,008532
395,000000	-0,008702
394,000000	-0,008460
393,000000	-0,008902
392,000000	-0,008783
391,000000	-0,008711
390,000000	-0,008962
