PE UV       SUBTECH     SPECTRUM    ASCII       PEDS        4.00        
   -1
11-15.Sample.Raw.asc
20/11/02
15:54:08.00
20/11/02
15:54:08.00
Analyst

390,000000
1
Lambda 25
501s11081509
PerkinElmer UV WinLab 6.0.3.0730 / Lambda25 1.27

480
2
1
0
0
Both on
1
1
1
None
0
0
0
0
 
 
0
0
0
0
0
 
 
 
0
 
0
326
0
 
0
 
 
 
0
0
0
 
0
 
 
 
0
 
 
0
0
0
0
0
 
 
 
 
0
0


#HDR
-1
-1
#GR
nm
A
1.0
0.0
700,000000
-1,000000
311
8
1,610742
0,003782
#DATA
700,000000	0,003974
699,000000	0,003782
698,000000	0,003941
697,000000	0,004024
696,000000	0,004206
695,000000	0,004101
694,000000	0,004255
693,000000	0,004182
692,000000	0,004241
691,000000	0,004139
690,000000	0,004446
689,000000	0,004260
688,000000	0,004241
687,000000	0,004393
686,000000	0,004638
685,000000	0,004536
684,000000	0,004471
683,000000	0,004798
682,000000	0,004753
681,000000	0,004707
680,000000	0,004625
679,000000	0,004941
678,000000	0,004569
677,000000	0,004664
676,000000	0,005043
675,000000	0,005236
674,000000	0,004713
673,000000	0,004746
672,000000	0,004747
671,000000	0,004911
670,000000	0,005050
669,000000	0,005058
668,000000	0,005051
667,000000	0,005104
666,000000	0,005042
665,000000	0,005520
664,000000	0,005213
663,000000	0,005720
662,000000	0,005972
661,000000	0,005381
660,000000	0,005768
659,000000	0,005896
658,000000	0,005760
657,000000	0,005900
656,000000	0,006127
655,000000	0,006195
654,000000	0,005911
653,000000	0,005896
652,000000	0,006126
651,000000	0,006151
650,000000	0,006036
649,000000	0,005906
648,000000	0,006254
647,000000	0,006425
646,000000	0,006278
645,000000	0,006515
644,000000	0,006803
643,000000	0,006604
642,000000	0,006503
641,000000	0,007055
640,000000	0,006873
639,000000	0,007149
638,000000	0,007232
637,000000	0,007213
636,000000	0,007610
635,000000	0,007713
634,000000	0,007889
633,000000	0,007749
632,000000	0,007980
631,000000	0,008154
630,000000	0,007933
629,000000	0,007991
628,000000	0,008467
627,000000	0,008352
626,000000	0,008614
625,000000	0,008530
624,000000	0,008899
623,000000	0,008965
622,000000	0,009057
621,000000	0,009368
620,000000	0,009474
619,000000	0,009704
618,000000	0,009397
617,000000	0,009884
616,000000	0,010059
615,000000	0,010089
614,000000	0,010447
613,000000	0,010500
612,000000	0,010752
611,000000	0,010653
610,000000	0,011275
609,000000	0,011552
608,000000	0,011595
607,000000	0,011926
606,000000	0,011926
605,000000	0,012299
604,000000	0,012519
603,000000	0,012572
602,000000	0,012739
601,000000	0,012884
600,000000	0,013452
599,000000	0,013706
598,000000	0,013586
597,000000	0,014046
596,000000	0,014563
595,000000	0,014446
594,000000	0,014841
593,000000	0,015062
592,000000	0,015170
591,000000	0,015185
590,000000	0,015741
589,000000	0,016039
588,000000	0,016151
587,000000	0,016149
586,000000	0,016935
585,000000	0,016956
584,000000	0,017005
583,000000	0,017720
582,000000	0,018423
581,000000	0,018682
580,000000	0,018979
579,000000	0,019332
578,000000	0,019406
577,000000	0,019948
576,000000	0,020304
575,000000	0,020558
574,000000	0,021254
573,000000	0,021694
572,000000	0,022038
571,000000	0,022949
570,000000	0,023204
569,000000	0,023426
568,000000	0,023941
567,000000	0,024454
566,000000	0,025124
565,000000	0,025793
564,000000	0,026460
563,000000	0,026930
562,000000	0,027897
561,000000	0,028336
560,000000	0,029700
559,000000	0,031803
558,000000	0,033585
557,000000	0,034159
556,000000	0,035827
555,000000	0,037522
554,000000	0,038880
553,000000	0,040934
552,000000	0,042867
551,000000	0,045341
550,000000	0,046851
549,000000	0,049235
548,000000	0,051427
547,000000	0,053874
546,000000	0,055972
545,000000	0,058412
544,000000	0,060865
543,000000	0,063501
542,000000	0,065854
541,000000	0,068389
540,000000	0,070173
539,000000	0,072365
538,000000	0,074740
537,000000	0,076841
536,000000	0,079513
535,000000	0,082226
534,000000	0,084317
533,000000	0,086594
532,000000	0,089118
531,000000	0,091730
530,000000	0,093720
529,000000	0,096387
528,000000	0,099142
527,000000	0,101466
526,000000	0,103340
525,000000	0,105925
524,000000	0,108011
523,000000	0,109908
522,000000	0,111318
521,000000	0,113231
520,000000	0,114477
519,000000	0,115485
518,000000	0,116243
517,000000	0,116960
516,000000	0,117904
515,000000	0,118441
514,000000	0,119029
513,000000	0,119841
512,000000	0,120023
511,000000	0,120543
510,000000	0,120774
509,000000	0,121472
508,000000	0,121730
507,000000	0,122573
506,000000	0,123044
505,000000	0,123872
504,000000	0,125088
503,000000	0,125623
502,000000	0,125937
501,000000	0,127292
500,000000	0,128324
499,000000	0,129241
498,000000	0,130693
497,000000	0,132099
496,000000	0,133556
495,000000	0,134628
494,000000	0,136663
493,000000	0,138538
492,000000	0,140225
491,000000	0,141816
490,000000	0,143501
489,000000	0,145745
488,000000	0,147615
487,000000	0,150365
486,000000	0,152921
485,000000	0,155441
484,000000	0,158325
483,000000	0,161099
482,000000	0,163900
481,000000	0,167250
480,000000	0,170985
479,000000	0,174716
478,000000	0,179140
477,000000	0,184197
476,000000	0,189777
475,000000	0,195617
474,000000	0,202112
473,000000	0,209248
472,000000	0,217114
471,000000	0,225928
470,000000	0,235904
469,000000	0,246890
468,000000	0,258531
467,000000	0,271792
466,000000	0,286797
465,000000	0,302136
464,000000	0,319118
463,000000	0,337329
462,000000	0,357234
461,000000	0,378367
460,000000	0,400977
459,000000	0,427533
458,000000	0,455514
457,000000	0,484860
456,000000	0,516824
455,000000	0,545301
454,000000	0,577133
453,000000	0,609862
452,000000	0,645319
451,000000	0,681391
450,000000	0,720434
449,000000	0,762770
448,000000	0,804955
447,000000	0,848341
446,000000	0,887796
445,000000	0,926519
444,000000	0,968051
443,000000	1,011137
442,000000	1,054404
441,000000	1,099793
440,000000	1,142185
439,000000	1,183091
438,000000	1,222400
437,000000	1,260895
436,000000	1,298080
435,000000	1,332767
434,000000	1,366259
433,000000	1,396721
432,000000	1,429966
431,000000	1,456333
430,000000	1,473310
429,000000	1,502948
428,000000	1,521584
427,000000	1,536068
426,000000	1,558834
425,000000	1,569618
424,000000	1,584006
423,000000	1,598735
422,000000	1,610742
421,000000	1,508081
420,000000	1,471864
419,000000	1,471546
418,000000	1,474892
417,000000	1,475053
416,000000	1,477652
415,000000	1,479631
414,000000	1,479725
413,000000	1,479332
412,000000	1,478725
411,000000	1,479274
410,000000	1,477027
409,000000	1,479561
408,000000	1,475907
407,000000	1,473015
406,000000	1,469262
405,000000	1,472326
404,000000	1,470400
403,000000	1,464265
402,000000	1,459682
401,000000	1,459375
400,000000	1,455794
399,000000	1,452553
398,000000	1,451806
397,000000	1,446741
396,000000	1,442802
395,000000	1,438627
394,000000	1,436169
393,000000	1,429005
392,000000	1,425358
391,000000	1,422236
390,000000	1,418566
