PE UV       SUBTECH     SPECTRUM    ASCII       PEDS        4.00        
   -1
11-12.Sample.Raw.asc
20/11/02
15:52:06.00
20/11/02
15:52:06.00
Analyst

390,000000
1
Lambda 25
501s11081509
PerkinElmer UV WinLab 6.0.3.0730 / Lambda25 1.27

480
2
1
0
0
Both on
1
1
1
None
0
0
0
0
 
 
0
0
0
0
0
 
 
 
0
 
0
326
0
 
0
 
 
 
0
0
0
 
0
 
 
 
0
 
 
0
0
0
0
0
 
 
 
 
0
0


#HDR
-1
-1
#GR
nm
A
1.0
0.0
700,000000
-1,000000
311
8
0,707671
0,089154
#DATA
700,000000	0,089154
699,000000	0,089392
698,000000	0,089534
697,000000	0,090114
696,000000	0,090853
695,000000	0,091029
694,000000	0,091387
693,000000	0,091894
692,000000	0,092225
691,000000	0,092549
690,000000	0,093018
689,000000	0,093622
688,000000	0,094126
687,000000	0,094622
686,000000	0,094987
685,000000	0,095388
684,000000	0,095854
683,000000	0,096406
682,000000	0,097288
681,000000	0,097418
680,000000	0,098143
679,000000	0,098744
678,000000	0,098762
677,000000	0,099516
676,000000	0,100307
675,000000	0,100931
674,000000	0,100938
673,000000	0,101752
672,000000	0,102173
671,000000	0,102655
670,000000	0,103042
669,000000	0,103888
668,000000	0,104564
667,000000	0,105008
666,000000	0,105502
665,000000	0,106495
664,000000	0,106729
663,000000	0,107586
662,000000	0,108656
661,000000	0,108818
660,000000	0,109157
659,000000	0,110269
658,000000	0,111038
657,000000	0,111667
656,000000	0,112192
655,000000	0,112690
654,000000	0,113410
653,000000	0,113945
652,000000	0,114824
651,000000	0,115478
650,000000	0,116431
649,000000	0,116815
648,000000	0,117849
647,000000	0,118445
646,000000	0,119440
645,000000	0,120073
644,000000	0,120828
643,000000	0,121329
642,000000	0,122144
641,000000	0,123208
640,000000	0,123740
639,000000	0,124724
638,000000	0,125731
637,000000	0,126070
636,000000	0,127440
635,000000	0,128506
634,000000	0,129590
633,000000	0,130013
632,000000	0,131048
631,000000	0,132069
630,000000	0,132821
629,000000	0,133775
628,000000	0,134916
627,000000	0,135719
626,000000	0,136589
625,000000	0,137451
624,000000	0,138241
623,000000	0,139564
622,000000	0,140573
621,000000	0,141508
620,000000	0,142396
619,000000	0,143564
618,000000	0,144526
617,000000	0,145629
616,000000	0,146828
615,000000	0,147869
614,000000	0,148922
613,000000	0,150101
612,000000	0,151260
611,000000	0,152236
610,000000	0,153973
609,000000	0,154888
608,000000	0,156193
607,000000	0,157706
606,000000	0,158218
605,000000	0,159525
604,000000	0,160822
603,000000	0,162250
602,000000	0,163328
601,000000	0,164729
600,000000	0,166408
599,000000	0,167852
598,000000	0,168340
597,000000	0,169479
596,000000	0,170978
595,000000	0,172026
594,000000	0,173396
593,000000	0,174757
592,000000	0,176160
591,000000	0,177454
590,000000	0,178291
589,000000	0,179451
588,000000	0,180935
587,000000	0,182079
586,000000	0,182940
585,000000	0,184224
584,000000	0,185422
583,000000	0,186725
582,000000	0,187974
581,000000	0,189087
580,000000	0,190160
579,000000	0,191010
578,000000	0,192064
577,000000	0,193120
576,000000	0,194527
575,000000	0,195489
574,000000	0,196691
573,000000	0,197854
572,000000	0,198140
571,000000	0,199740
570,000000	0,200643
569,000000	0,201639
568,000000	0,202599
567,000000	0,203092
566,000000	0,204417
565,000000	0,205642
564,000000	0,206500
563,000000	0,207340
562,000000	0,208249
561,000000	0,209264
560,000000	0,210876
559,000000	0,212813
558,000000	0,214382
557,000000	0,215281
556,000000	0,216542
555,000000	0,217756
554,000000	0,218703
553,000000	0,220225
552,000000	0,221487
551,000000	0,222608
550,000000	0,223737
549,000000	0,225104
548,000000	0,226395
547,000000	0,227265
546,000000	0,228413
545,000000	0,229723
544,000000	0,231074
543,000000	0,232080
542,000000	0,233561
541,000000	0,235063
540,000000	0,235575
539,000000	0,236414
538,000000	0,238552
537,000000	0,239619
536,000000	0,240680
535,000000	0,242554
534,000000	0,243821
533,000000	0,244745
532,000000	0,246046
531,000000	0,247879
530,000000	0,248990
529,000000	0,250676
528,000000	0,252229
527,000000	0,254276
526,000000	0,255421
525,000000	0,257264
524,000000	0,258895
523,000000	0,260792
522,000000	0,262724
521,000000	0,264810
520,000000	0,266141
519,000000	0,268394
518,000000	0,270477
517,000000	0,272103
516,000000	0,274467
515,000000	0,276129
514,000000	0,279051
513,000000	0,280966
512,000000	0,282659
511,000000	0,285142
510,000000	0,287541
509,000000	0,289435
508,000000	0,291938
507,000000	0,294286
506,000000	0,296588
505,000000	0,298760
504,000000	0,300904
503,000000	0,303230
502,000000	0,305640
501,000000	0,307794
500,000000	0,309864
499,000000	0,312093
498,000000	0,314400
497,000000	0,316756
496,000000	0,318972
495,000000	0,321665
494,000000	0,323627
493,000000	0,325608
492,000000	0,327291
491,000000	0,329611
490,000000	0,331471
489,000000	0,333007
488,000000	0,335224
487,000000	0,337377
486,000000	0,339212
485,000000	0,340891
484,000000	0,342734
483,000000	0,344446
482,000000	0,345580
481,000000	0,347632
480,000000	0,349332
479,000000	0,350892
478,000000	0,352528
477,000000	0,354386
476,000000	0,355770
475,000000	0,357428
474,000000	0,358636
473,000000	0,359989
472,000000	0,361533
471,000000	0,363231
470,000000	0,365234
469,000000	0,366427
468,000000	0,368128
467,000000	0,369713
466,000000	0,371493
465,000000	0,372979
464,000000	0,375233
463,000000	0,376885
462,000000	0,378929
461,000000	0,380582
460,000000	0,382146
459,000000	0,384466
458,000000	0,386697
457,000000	0,388954
456,000000	0,391541
455,000000	0,393551
454,000000	0,395172
453,000000	0,397320
452,000000	0,399284
451,000000	0,401631
450,000000	0,404140
449,000000	0,405570
448,000000	0,408446
447,000000	0,410607
446,000000	0,412645
445,000000	0,414909
444,000000	0,417970
443,000000	0,419544
442,000000	0,423783
441,000000	0,426654
440,000000	0,429548
439,000000	0,432559
438,000000	0,435824
437,000000	0,438802
436,000000	0,441857
435,000000	0,445483
434,000000	0,449042
433,000000	0,452998
432,000000	0,457241
431,000000	0,460910
430,000000	0,465827
429,000000	0,469753
428,000000	0,474446
427,000000	0,477913
426,000000	0,483212
425,000000	0,487356
424,000000	0,491328
423,000000	0,496323
422,000000	0,500638
421,000000	0,502972
420,000000	0,507229
419,000000	0,512005
418,000000	0,516545
417,000000	0,521038
416,000000	0,525683
415,000000	0,530789
414,000000	0,536254
413,000000	0,541083
412,000000	0,546803
411,000000	0,552148
410,000000	0,557650
409,000000	0,562674
408,000000	0,568782
407,000000	0,574834
406,000000	0,581905
405,000000	0,587631
404,000000	0,594006
403,000000	0,601148
402,000000	0,607842
401,000000	0,615277
400,000000	0,622455
399,000000	0,630134
398,000000	0,637716
397,000000	0,645523
396,000000	0,653790
395,000000	0,661880
394,000000	0,670063
393,000000	0,679220
392,000000	0,687910
391,000000	0,697529
390,000000	0,707671
