PE UV       SUBTECH     SPECTRUM    ASCII       PEDS        4.00        
   -1
11.Sample.Raw.asc
20/11/02
13:49:00.00
20/11/02
13:49:00.00
Analyst

390,000000
1
Lambda 25
501s11081509
PerkinElmer UV WinLab 6.0.3.0730 / Lambda25 1.27

480
2
1
0
0
Both on
1
1
1
None
0
0
0
0
 
 
0
0
0
0
0
 
 
 
0
 
0
326
0
 
0
 
 
 
0
0
0
 
0
 
 
 
0
 
 
0
0
0
0
0
 
 
 
 
0
0


#HDR
-1
-1
#GR
nm
A
1.0
0.0
700,000000
-1,000000
311
8
0,230786
0,004769
#DATA
700,000000	0,004888
699,000000	0,004813
698,000000	0,004769
697,000000	0,004993
696,000000	0,005292
695,000000	0,005296
694,000000	0,005110
693,000000	0,005115
692,000000	0,005200
691,000000	0,005148
690,000000	0,005164
689,000000	0,005195
688,000000	0,005342
687,000000	0,005390
686,000000	0,005216
685,000000	0,005430
684,000000	0,005228
683,000000	0,005327
682,000000	0,005708
681,000000	0,005657
680,000000	0,005718
679,000000	0,005855
678,000000	0,005713
677,000000	0,006084
676,000000	0,006116
675,000000	0,006256
674,000000	0,006085
673,000000	0,006067
672,000000	0,005872
671,000000	0,006129
670,000000	0,006239
669,000000	0,006327
668,000000	0,006299
667,000000	0,006189
666,000000	0,006497
665,000000	0,006593
664,000000	0,006329
663,000000	0,006849
662,000000	0,007072
661,000000	0,006510
660,000000	0,006994
659,000000	0,007186
658,000000	0,007046
657,000000	0,007081
656,000000	0,007137
655,000000	0,007163
654,000000	0,007126
653,000000	0,007125
652,000000	0,007591
651,000000	0,007451
650,000000	0,007442
649,000000	0,007527
648,000000	0,007877
647,000000	0,007554
646,000000	0,007455
645,000000	0,008296
644,000000	0,007980
643,000000	0,007971
642,000000	0,008048
641,000000	0,008558
640,000000	0,007963
639,000000	0,008358
638,000000	0,008276
637,000000	0,008482
636,000000	0,008473
635,000000	0,008737
634,000000	0,009049
633,000000	0,009143
632,000000	0,008535
631,000000	0,009141
630,000000	0,009280
629,000000	0,009093
628,000000	0,009227
627,000000	0,009345
626,000000	0,009663
625,000000	0,009498
624,000000	0,009569
623,000000	0,009934
622,000000	0,009958
621,000000	0,009958
620,000000	0,010099
619,000000	0,010329
618,000000	0,009954
617,000000	0,010492
616,000000	0,010697
615,000000	0,010660
614,000000	0,010750
613,000000	0,011323
612,000000	0,011277
611,000000	0,011050
610,000000	0,011723
609,000000	0,011701
608,000000	0,011929
607,000000	0,012122
606,000000	0,012093
605,000000	0,012440
604,000000	0,012591
603,000000	0,012966
602,000000	0,012829
601,000000	0,013300
600,000000	0,013427
599,000000	0,013740
598,000000	0,013676
597,000000	0,013840
596,000000	0,014160
595,000000	0,014193
594,000000	0,014661
593,000000	0,014773
592,000000	0,014864
591,000000	0,015099
590,000000	0,015279
589,000000	0,015654
588,000000	0,015809
587,000000	0,016062
586,000000	0,016597
585,000000	0,016569
584,000000	0,016879
583,000000	0,017371
582,000000	0,017658
581,000000	0,017698
580,000000	0,018186
579,000000	0,018282
578,000000	0,018606
577,000000	0,018763
576,000000	0,019334
575,000000	0,019272
574,000000	0,019762
573,000000	0,020288
572,000000	0,020386
571,000000	0,020974
570,000000	0,021041
569,000000	0,021408
568,000000	0,021885
567,000000	0,021900
566,000000	0,022584
565,000000	0,023308
564,000000	0,023154
563,000000	0,023450
562,000000	0,024400
561,000000	0,024059
560,000000	0,025025
559,000000	0,025404
558,000000	0,026348
557,000000	0,026581
556,000000	0,027008
555,000000	0,028063
554,000000	0,028115
553,000000	0,028573
552,000000	0,028974
551,000000	0,029842
550,000000	0,030337
549,000000	0,030729
548,000000	0,031469
547,000000	0,032096
546,000000	0,032490
545,000000	0,033191
544,000000	0,033883
543,000000	0,034474
542,000000	0,035279
541,000000	0,036154
540,000000	0,036423
539,000000	0,037117
538,000000	0,038045
537,000000	0,038557
536,000000	0,039344
535,000000	0,040466
534,000000	0,040955
533,000000	0,041610
532,000000	0,042457
531,000000	0,043212
530,000000	0,043862
529,000000	0,045220
528,000000	0,045937
527,000000	0,046627
526,000000	0,047317
525,000000	0,048374
524,000000	0,049357
523,000000	0,049902
522,000000	0,051112
521,000000	0,051965
520,000000	0,052737
519,000000	0,053444
518,000000	0,054433
517,000000	0,054595
516,000000	0,055681
515,000000	0,056478
514,000000	0,057623
513,000000	0,057947
512,000000	0,058937
511,000000	0,059496
510,000000	0,060213
509,000000	0,060714
508,000000	0,061226
507,000000	0,062029
506,000000	0,062687
505,000000	0,063070
504,000000	0,064086
503,000000	0,064470
502,000000	0,065076
501,000000	0,065409
500,000000	0,066090
499,000000	0,066707
498,000000	0,067309
497,000000	0,068286
496,000000	0,068825
495,000000	0,069110
494,000000	0,070068
493,000000	0,070603
492,000000	0,071034
491,000000	0,071845
490,000000	0,072362
489,000000	0,072999
488,000000	0,073403
487,000000	0,074063
486,000000	0,074924
485,000000	0,075348
484,000000	0,076066
483,000000	0,076679
482,000000	0,076954
481,000000	0,077748
480,000000	0,078392
479,000000	0,078825
478,000000	0,079429
477,000000	0,079617
476,000000	0,080528
475,000000	0,081267
474,000000	0,081890
473,000000	0,082298
472,000000	0,082831
471,000000	0,083477
470,000000	0,084065
469,000000	0,084577
468,000000	0,085247
467,000000	0,085864
466,000000	0,086902
465,000000	0,087311
464,000000	0,088773
463,000000	0,089159
462,000000	0,090080
461,000000	0,091203
460,000000	0,092321
459,000000	0,093264
458,000000	0,094555
457,000000	0,095807
456,000000	0,097929
455,000000	0,098462
454,000000	0,100156
453,000000	0,101397
452,000000	0,103161
451,000000	0,104483
450,000000	0,106876
449,000000	0,108823
448,000000	0,110444
447,000000	0,112401
446,000000	0,114504
445,000000	0,116552
444,000000	0,118388
443,000000	0,121101
442,000000	0,123950
441,000000	0,126426
440,000000	0,129709
439,000000	0,133175
438,000000	0,135969
437,000000	0,139245
436,000000	0,142986
435,000000	0,147162
434,000000	0,150932
433,000000	0,155740
432,000000	0,161158
431,000000	0,165885
430,000000	0,171131
429,000000	0,176790
428,000000	0,182929
427,000000	0,188647
426,000000	0,194712
425,000000	0,199729
424,000000	0,204677
423,000000	0,208400
422,000000	0,212147
421,000000	0,212346
420,000000	0,212625
419,000000	0,213162
418,000000	0,213051
417,000000	0,211981
416,000000	0,211074
415,000000	0,210371
414,000000	0,209589
413,000000	0,209248
412,000000	0,209882
411,000000	0,210436
410,000000	0,211256
409,000000	0,212525
408,000000	0,213655
407,000000	0,214731
406,000000	0,216376
405,000000	0,217658
404,000000	0,219126
403,000000	0,221245
402,000000	0,223324
401,000000	0,225374
400,000000	0,227154
399,000000	0,228780
398,000000	0,229876
397,000000	0,230591
396,000000	0,230786
395,000000	0,230667
394,000000	0,229585
393,000000	0,228916
392,000000	0,228070
391,000000	0,227660
390,000000	0,227372
