PE UV       SUBTECH     SPECTRUM    ASCII       PEDS        4.00        
   -1
12.Sample.Raw.asc
20/11/02
13:51:10.00
20/11/02
13:51:10.00
Analyst

390,000000
1
Lambda 25
501s11081509
PerkinElmer UV WinLab 6.0.3.0730 / Lambda25 1.27

480
2
1
0
0
Both on
1
1
1
None
0
0
0
0
 
 
0
0
0
0
0
 
 
 
0
 
0
326
0
 
0
 
 
 
0
0
0
 
0
 
 
 
0
 
 
0
0
0
0
0
 
 
 
 
0
0


#HDR
-1
-1
#GR
nm
A
1.0
0.0
700,000000
-1,000000
311
8
0,539847
0,042097
#DATA
700,000000	0,042097
699,000000	0,042215
698,000000	0,042622
697,000000	0,042878
696,000000	0,043277
695,000000	0,043252
694,000000	0,043405
693,000000	0,043759
692,000000	0,043803
691,000000	0,044091
690,000000	0,044335
689,000000	0,044500
688,000000	0,044841
687,000000	0,044958
686,000000	0,045144
685,000000	0,045596
684,000000	0,045697
683,000000	0,045941
682,000000	0,046464
681,000000	0,046912
680,000000	0,046757
679,000000	0,047192
678,000000	0,047225
677,000000	0,047778
676,000000	0,048035
675,000000	0,048247
674,000000	0,048359
673,000000	0,048572
672,000000	0,048594
671,000000	0,049168
670,000000	0,049406
669,000000	0,049694
668,000000	0,049935
667,000000	0,050221
666,000000	0,050400
665,000000	0,051046
664,000000	0,050915
663,000000	0,051598
662,000000	0,051882
661,000000	0,051799
660,000000	0,052065
659,000000	0,052526
658,000000	0,052737
657,000000	0,053117
656,000000	0,053498
655,000000	0,053615
654,000000	0,053653
653,000000	0,054030
652,000000	0,054715
651,000000	0,054783
650,000000	0,054925
649,000000	0,055360
648,000000	0,056058
647,000000	0,055753
646,000000	0,056040
645,000000	0,056738
644,000000	0,057114
643,000000	0,056827
642,000000	0,057438
641,000000	0,058237
640,000000	0,057964
639,000000	0,058584
638,000000	0,058921
637,000000	0,059154
636,000000	0,059753
635,000000	0,060068
634,000000	0,060447
633,000000	0,060350
632,000000	0,060662
631,000000	0,061299
630,000000	0,061594
629,000000	0,061766
628,000000	0,062343
627,000000	0,062920
626,000000	0,063113
625,000000	0,063233
624,000000	0,063667
623,000000	0,064086
622,000000	0,064520
621,000000	0,064982
620,000000	0,065458
619,000000	0,065640
618,000000	0,065741
617,000000	0,066639
616,000000	0,067216
615,000000	0,066936
614,000000	0,067542
613,000000	0,068352
612,000000	0,068420
611,000000	0,068647
610,000000	0,069605
609,000000	0,069788
608,000000	0,070084
607,000000	0,070274
606,000000	0,070750
605,000000	0,071071
604,000000	0,071592
603,000000	0,072122
602,000000	0,072697
601,000000	0,072872
600,000000	0,073374
599,000000	0,073732
598,000000	0,073971
597,000000	0,074200
596,000000	0,075131
595,000000	0,075388
594,000000	0,076022
593,000000	0,076345
592,000000	0,076582
591,000000	0,077149
590,000000	0,077492
589,000000	0,077908
588,000000	0,078617
587,000000	0,078817
586,000000	0,079427
585,000000	0,079674
584,000000	0,080403
583,000000	0,080985
582,000000	0,081644
581,000000	0,082293
580,000000	0,082862
579,000000	0,082889
578,000000	0,083493
577,000000	0,084431
576,000000	0,084875
575,000000	0,085377
574,000000	0,085982
573,000000	0,086929
572,000000	0,087197
571,000000	0,088039
570,000000	0,088654
569,000000	0,089325
568,000000	0,089578
567,000000	0,089677
566,000000	0,090776
565,000000	0,091490
564,000000	0,092056
563,000000	0,092452
562,000000	0,093793
561,000000	0,093928
560,000000	0,095008
559,000000	0,095567
558,000000	0,096779
557,000000	0,096994
556,000000	0,097868
555,000000	0,098689
554,000000	0,099220
553,000000	0,100044
552,000000	0,100586
551,000000	0,101659
550,000000	0,102081
549,000000	0,103092
548,000000	0,103797
547,000000	0,104518
546,000000	0,105311
545,000000	0,105843
544,000000	0,107112
543,000000	0,107210
542,000000	0,108429
541,000000	0,109610
540,000000	0,110038
539,000000	0,110252
538,000000	0,111686
537,000000	0,112114
536,000000	0,113144
535,000000	0,113865
534,000000	0,114873
533,000000	0,115518
532,000000	0,116408
531,000000	0,117360
530,000000	0,117934
529,000000	0,119050
528,000000	0,119759
527,000000	0,121035
526,000000	0,121593
525,000000	0,123027
524,000000	0,123654
523,000000	0,124477
522,000000	0,125799
521,000000	0,126978
520,000000	0,127781
519,000000	0,128994
518,000000	0,130294
517,000000	0,130937
516,000000	0,132112
515,000000	0,133550
514,000000	0,134684
513,000000	0,135425
512,000000	0,136744
511,000000	0,138068
510,000000	0,139215
509,000000	0,140284
508,000000	0,141439
507,000000	0,143041
506,000000	0,144187
505,000000	0,145116
504,000000	0,146854
503,000000	0,148221
502,000000	0,149079
501,000000	0,150659
500,000000	0,151971
499,000000	0,153421
498,000000	0,154649
497,000000	0,156092
496,000000	0,157950
495,000000	0,159182
494,000000	0,160948
493,000000	0,162471
492,000000	0,164009
491,000000	0,165696
490,000000	0,166839
489,000000	0,168135
488,000000	0,170118
487,000000	0,171814
486,000000	0,173803
485,000000	0,175407
484,000000	0,177134
483,000000	0,179256
482,000000	0,180757
481,000000	0,182073
480,000000	0,183960
479,000000	0,186333
478,000000	0,187836
477,000000	0,189752
476,000000	0,192064
475,000000	0,193579
474,000000	0,195213
473,000000	0,197087
472,000000	0,198534
471,000000	0,200630
470,000000	0,202533
469,000000	0,204715
468,000000	0,206455
467,000000	0,208774
466,000000	0,210930
465,000000	0,212707
464,000000	0,215217
463,000000	0,216860
462,000000	0,218905
461,000000	0,221707
460,000000	0,223608
459,000000	0,226234
458,000000	0,228349
457,000000	0,230843
456,000000	0,233795
455,000000	0,235218
454,000000	0,237686
453,000000	0,239871
452,000000	0,242627
451,000000	0,244702
450,000000	0,248081
449,000000	0,250487
448,000000	0,252408
447,000000	0,255367
446,000000	0,257734
445,000000	0,260335
444,000000	0,262408
443,000000	0,266010
442,000000	0,269049
441,000000	0,271666
440,000000	0,275038
439,000000	0,278406
438,000000	0,281138
437,000000	0,284586
436,000000	0,287832
435,000000	0,291408
434,000000	0,294700
433,000000	0,297607
432,000000	0,301209
431,000000	0,305013
430,000000	0,309007
429,000000	0,312818
428,000000	0,317447
427,000000	0,321581
426,000000	0,325303
425,000000	0,329849
424,000000	0,333709
423,000000	0,337798
422,000000	0,342765
421,000000	0,344174
420,000000	0,347337
419,000000	0,351809
418,000000	0,356818
417,000000	0,360560
416,000000	0,365400
415,000000	0,370972
414,000000	0,375901
413,000000	0,380668
412,000000	0,385949
411,000000	0,391995
410,000000	0,397100
409,000000	0,402542
408,000000	0,408501
407,000000	0,414367
406,000000	0,420722
405,000000	0,427211
404,000000	0,432986
403,000000	0,439583
402,000000	0,445798
401,000000	0,452895
400,000000	0,460138
399,000000	0,467577
398,000000	0,474877
397,000000	0,482306
396,000000	0,489584
395,000000	0,496913
394,000000	0,505050
393,000000	0,513983
392,000000	0,522480
391,000000	0,530837
390,000000	0,539847
