PE UV       SUBTECH     SPECTRUM    ASCII       PEDS        4.00        
   -1
14.Sample.Raw.asc
20/11/02
13:27:08.00
20/11/02
13:27:08.00
Analyst

390,000000
1
Lambda 25
501s11081509
PerkinElmer UV WinLab 6.0.3.0730 / Lambda25 1.27

480
2
1
0
0
Both on
1
1
1
None
0
0
0
0
 
 
0
0
0
0
0
 
 
 
0
 
0
326
0
 
0
 
 
 
0
0
0
 
0
 
 
 
0
 
 
0
0
0
0
0
 
 
 
 
0
0


#HDR
-1
-1
#GR
nm
A
1.0
0.0
700,000000
-1,000000
311
8
0,016210
-0,000930
#DATA
700,000000	-0,000585
699,000000	-0,000667
698,000000	-0,000696
697,000000	-0,000639
696,000000	-0,000426
695,000000	-0,000635
694,000000	-0,000463
693,000000	-0,000386
692,000000	-0,000648
691,000000	-0,000747
690,000000	-0,000521
689,000000	-0,000620
688,000000	-0,000677
687,000000	-0,000514
686,000000	-0,000370
685,000000	-0,000645
684,000000	-0,000670
683,000000	-0,000313
682,000000	-0,000387
681,000000	-0,000346
680,000000	-0,000297
679,000000	-0,000313
678,000000	-0,000561
677,000000	-0,000326
676,000000	-0,000227
675,000000	0,000049
674,000000	-0,000644
673,000000	-0,000409
672,000000	-0,000400
671,000000	-0,000475
670,000000	-0,000483
669,000000	-0,000244
668,000000	-0,000723
667,000000	-0,000707
666,000000	-0,000575
665,000000	-0,000240
664,000000	-0,000724
663,000000	-0,000322
662,000000	-0,000360
661,000000	-0,000649
660,000000	-0,000930
659,000000	-0,000500
658,000000	-0,000497
657,000000	-0,000633
656,000000	-0,000418
655,000000	-0,000294
654,000000	-0,000513
653,000000	-0,000778
652,000000	-0,000265
651,000000	0,000025
650,000000	-0,000220
649,000000	-0,000269
648,000000	0,000158
647,000000	-0,000290
646,000000	-0,000610
645,000000	-0,000129
644,000000	-0,000004
643,000000	-0,000245
642,000000	-0,000373
641,000000	0,000112
640,000000	-0,000274
639,000000	-0,000141
638,000000	-0,000270
637,000000	-0,000204
636,000000	0,000021
635,000000	0,000071
634,000000	0,000129
633,000000	0,000058
632,000000	-0,000374
631,000000	0,000012
630,000000	-0,000046
629,000000	-0,000320
628,000000	-0,000145
627,000000	-0,000108
626,000000	0,000000
625,000000	-0,000187
624,000000	-0,000079
623,000000	0,000029
622,000000	-0,000104
621,000000	-0,000170
620,000000	-0,000075
619,000000	-0,000071
618,000000	-0,000332
617,000000	0,000158
616,000000	0,000096
615,000000	-0,000108
614,000000	-0,000129
613,000000	0,000145
612,000000	-0,000083
611,000000	-0,000333
610,000000	0,000233
609,000000	0,000112
608,000000	0,000100
607,000000	0,000079
606,000000	0,000033
605,000000	-0,000025
604,000000	-0,000042
603,000000	-0,000054
602,000000	0,000166
601,000000	-0,000008
600,000000	0,000291
599,000000	0,000441
598,000000	-0,000042
597,000000	-0,000033
596,000000	0,000096
595,000000	0,000287
594,000000	0,000320
593,000000	0,000050
592,000000	0,000017
591,000000	0,000087
590,000000	-0,000108
589,000000	-0,000096
588,000000	0,000054
587,000000	0,000134
586,000000	0,000088
585,000000	-0,000096
584,000000	-0,000192
583,000000	0,000038
582,000000	0,000184
581,000000	0,000046
580,000000	0,000260
579,000000	0,000135
578,000000	-0,000114
577,000000	0,000131
576,000000	0,000426
575,000000	0,000055
574,000000	0,000215
573,000000	0,000156
572,000000	0,000220
571,000000	0,000554
570,000000	0,000394
569,000000	0,000360
568,000000	0,000317
567,000000	0,000195
566,000000	0,000415
565,000000	0,000712
564,000000	0,000280
563,000000	0,000259
562,000000	0,000830
561,000000	0,000114
560,000000	0,000547
559,000000	0,000649
558,000000	0,000953
557,000000	0,000432
556,000000	0,000559
555,000000	0,000699
554,000000	0,000331
553,000000	0,000445
552,000000	0,000479
551,000000	0,000936
550,000000	0,000386
549,000000	0,000856
548,000000	0,000784
547,000000	0,000995
546,000000	0,000411
545,000000	0,000775
544,000000	0,000872
543,000000	0,000440
542,000000	0,001042
541,000000	0,001177
540,000000	0,000775
539,000000	0,000661
538,000000	0,001321
537,000000	0,000766
536,000000	0,000906
535,000000	0,001468
534,000000	0,001231
533,000000	0,000995
532,000000	0,000774
531,000000	0,001299
530,000000	0,000766
529,000000	0,001092
528,000000	0,001198
527,000000	0,001478
526,000000	0,001249
525,000000	0,001236
524,000000	0,001355
523,000000	0,001262
522,000000	0,001168
521,000000	0,001744
520,000000	0,001477
519,000000	0,001397
518,000000	0,001739
517,000000	0,001621
516,000000	0,001825
515,000000	0,001604
514,000000	0,001840
513,000000	0,001743
512,000000	0,001827
511,000000	0,001712
510,000000	0,002013
509,000000	0,002122
508,000000	0,001958
507,000000	0,002177
506,000000	0,002295
505,000000	0,002227
504,000000	0,002213
503,000000	0,002412
502,000000	0,002422
501,000000	0,002429
500,000000	0,002340
499,000000	0,002531
498,000000	0,002517
497,000000	0,002736
496,000000	0,002998
495,000000	0,002935
494,000000	0,002831
493,000000	0,002908
492,000000	0,003005
491,000000	0,003397
490,000000	0,002982
489,000000	0,003194
488,000000	0,003449
487,000000	0,003404
486,000000	0,003480
485,000000	0,003613
484,000000	0,003737
483,000000	0,003679
482,000000	0,003650
481,000000	0,003717
480,000000	0,003985
479,000000	0,004087
478,000000	0,004089
477,000000	0,004258
476,000000	0,004527
475,000000	0,004331
474,000000	0,004839
473,000000	0,004576
472,000000	0,004569
471,000000	0,004443
470,000000	0,004901
469,000000	0,004764
468,000000	0,004824
467,000000	0,004901
466,000000	0,005269
465,000000	0,004990
464,000000	0,005449
463,000000	0,005471
462,000000	0,005476
461,000000	0,005661
460,000000	0,005851
459,000000	0,005772
458,000000	0,005571
457,000000	0,005801
456,000000	0,006570
455,000000	0,006277
454,000000	0,006297
453,000000	0,006520
452,000000	0,006466
451,000000	0,006626
450,000000	0,006883
449,000000	0,006855
448,000000	0,006942
447,000000	0,007358
446,000000	0,007275
445,000000	0,007172
444,000000	0,007242
443,000000	0,007163
442,000000	0,007915
441,000000	0,007451
440,000000	0,007775
439,000000	0,008022
438,000000	0,007980
437,000000	0,007923
436,000000	0,008211
435,000000	0,008729
434,000000	0,008622
433,000000	0,008461
432,000000	0,008545
431,000000	0,008935
430,000000	0,008905
429,000000	0,008988
428,000000	0,009216
427,000000	0,009306
426,000000	0,009447
425,000000	0,009714
424,000000	0,009450
423,000000	0,009715
422,000000	0,009550
421,000000	0,009678
420,000000	0,009759
419,000000	0,009864
418,000000	0,010200
417,000000	0,009870
416,000000	0,010004
415,000000	0,010939
414,000000	0,010782
413,000000	0,010334
412,000000	0,010738
411,000000	0,011083
410,000000	0,011173
409,000000	0,011214
408,000000	0,011725
407,000000	0,012093
406,000000	0,012326
405,000000	0,012399
404,000000	0,012677
403,000000	0,012734
402,000000	0,013002
401,000000	0,013507
400,000000	0,013587
399,000000	0,013678
398,000000	0,013908
397,000000	0,014231
396,000000	0,014642
395,000000	0,014909
394,000000	0,015010
393,000000	0,015360
392,000000	0,015506
391,000000	0,015530
390,000000	0,016210
