PE UV       SUBTECH     SPECTRUM    ASCII       PEDS        4.00        
   -1
15.Sample.Raw.asc
20/11/02
13:53:18.00
20/11/02
13:53:18.00
Analyst

390,000000
1
Lambda 25
501s11081509
PerkinElmer UV WinLab 6.0.3.0730 / Lambda25 1.27

480
2
1
0
0
Both on
1
1
1
None
0
0
0
0
 
 
0
0
0
0
0
 
 
 
0
 
0
326
0
 
0
 
 
 
0
0
0
 
0
 
 
 
0
 
 
0
0
0
0
0
 
 
 
 
0
0


#HDR
-1
-1
#GR
nm
A
1.0
0.0
700,000000
-1,000000
311
8
0,203672
0,001266
#DATA
700,000000	0,001456
699,000000	0,001535
698,000000	0,001507
697,000000	0,001540
696,000000	0,001832
695,000000	0,001805
694,000000	0,001480
693,000000	0,001492
692,000000	0,001744
691,000000	0,001609
690,000000	0,001526
689,000000	0,001762
688,000000	0,001775
687,000000	0,001437
686,000000	0,001710
685,000000	0,001851
684,000000	0,001496
683,000000	0,001501
682,000000	0,001977
681,000000	0,001925
680,000000	0,001391
679,000000	0,001553
678,000000	0,001848
677,000000	0,001756
676,000000	0,001677
675,000000	0,001727
674,000000	0,001514
673,000000	0,001506
672,000000	0,001585
671,000000	0,001548
670,000000	0,001503
669,000000	0,001685
668,000000	0,001520
667,000000	0,001541
666,000000	0,001554
665,000000	0,001669
664,000000	0,001567
663,000000	0,001844
662,000000	0,001828
661,000000	0,001700
660,000000	0,001534
659,000000	0,001871
658,000000	0,001709
657,000000	0,001734
656,000000	0,001805
655,000000	0,001723
654,000000	0,001881
653,000000	0,001653
652,000000	0,001844
651,000000	0,001773
650,000000	0,001719
649,000000	0,001745
648,000000	0,001899
647,000000	0,001529
646,000000	0,001571
645,000000	0,001808
644,000000	0,001771
643,000000	0,001405
642,000000	0,001705
641,000000	0,001900
640,000000	0,001573
639,000000	0,001835
638,000000	0,001860
637,000000	0,001632
636,000000	0,001719
635,000000	0,001964
634,000000	0,002085
633,000000	0,001661
632,000000	0,001549
631,000000	0,001752
630,000000	0,001582
629,000000	0,001486
628,000000	0,001832
627,000000	0,001608
626,000000	0,001891
625,000000	0,001403
624,000000	0,001975
623,000000	0,001791
622,000000	0,001715
621,000000	0,001716
620,000000	0,001716
619,000000	0,001745
618,000000	0,001453
617,000000	0,001657
616,000000	0,001599
615,000000	0,001416
614,000000	0,001528
613,000000	0,001791
612,000000	0,001650
611,000000	0,001266
610,000000	0,001807
609,000000	0,001454
608,000000	0,001696
607,000000	0,001742
606,000000	0,001696
605,000000	0,001650
604,000000	0,001562
603,000000	0,001632
602,000000	0,001582
601,000000	0,001374
600,000000	0,001848
599,000000	0,001944
598,000000	0,001645
597,000000	0,001653
596,000000	0,001578
595,000000	0,001765
594,000000	0,001820
593,000000	0,001536
592,000000	0,001545
591,000000	0,001713
590,000000	0,001485
589,000000	0,001465
588,000000	0,001616
587,000000	0,001454
586,000000	0,001602
585,000000	0,001411
584,000000	0,001395
583,000000	0,001548
582,000000	0,001532
581,000000	0,002048
580,000000	0,001982
579,000000	0,001660
578,000000	0,001489
577,000000	0,001718
576,000000	0,001859
575,000000	0,001561
574,000000	0,001731
573,000000	0,001898
572,000000	0,001652
571,000000	0,002076
570,000000	0,002027
569,000000	0,002095
568,000000	0,001798
567,000000	0,001850
566,000000	0,001985
565,000000	0,002121
564,000000	0,001579
563,000000	0,002077
562,000000	0,002564
561,000000	0,001720
560,000000	0,002252
559,000000	0,002281
558,000000	0,002232
557,000000	0,001834
556,000000	0,001961
555,000000	0,002411
554,000000	0,002213
553,000000	0,001885
552,000000	0,002182
551,000000	0,002419
550,000000	0,002093
549,000000	0,002559
548,000000	0,002181
547,000000	0,002644
546,000000	0,002189
545,000000	0,002214
544,000000	0,002227
543,000000	0,002074
542,000000	0,002417
541,000000	0,002629
540,000000	0,002282
539,000000	0,002236
538,000000	0,002693
537,000000	0,002520
536,000000	0,002293
535,000000	0,002776
534,000000	0,002747
533,000000	0,002510
532,000000	0,002540
531,000000	0,002751
530,000000	0,002545
529,000000	0,002515
528,000000	0,002378
527,000000	0,002756
526,000000	0,002434
525,000000	0,002840
524,000000	0,002701
523,000000	0,002872
522,000000	0,002683
521,000000	0,003040
520,000000	0,002781
519,000000	0,002972
518,000000	0,002801
517,000000	0,002755
516,000000	0,002699
515,000000	0,002742
514,000000	0,002999
513,000000	0,002830
512,000000	0,003156
511,000000	0,002858
510,000000	0,002908
509,000000	0,002899
508,000000	0,002704
507,000000	0,002830
506,000000	0,002804
505,000000	0,002990
504,000000	0,002968
503,000000	0,002797
502,000000	0,002854
501,000000	0,002726
500,000000	0,002899
499,000000	0,002738
498,000000	0,003118
497,000000	0,003071
496,000000	0,003006
495,000000	0,002977
494,000000	0,003483
493,000000	0,003200
492,000000	0,003052
491,000000	0,003592
490,000000	0,003194
489,000000	0,003224
488,000000	0,003186
487,000000	0,003320
486,000000	0,003400
485,000000	0,003079
484,000000	0,003614
483,000000	0,003302
482,000000	0,003332
481,000000	0,003378
480,000000	0,003719
479,000000	0,003625
478,000000	0,003233
477,000000	0,003554
476,000000	0,003726
475,000000	0,003720
474,000000	0,003923
473,000000	0,003796
472,000000	0,003700
471,000000	0,003688
470,000000	0,004005
469,000000	0,004004
468,000000	0,003770
467,000000	0,004008
466,000000	0,004120
465,000000	0,003670
464,000000	0,004001
463,000000	0,003621
462,000000	0,004145
461,000000	0,004021
460,000000	0,003865
459,000000	0,003845
458,000000	0,003955
457,000000	0,004064
456,000000	0,004827
455,000000	0,004196
454,000000	0,004262
453,000000	0,004163
452,000000	0,004302
451,000000	0,004195
450,000000	0,004726
449,000000	0,004316
448,000000	0,004490
447,000000	0,004530
446,000000	0,004678
445,000000	0,004518
444,000000	0,004551
443,000000	0,004712
442,000000	0,004953
441,000000	0,004889
440,000000	0,005029
439,000000	0,004937
438,000000	0,005220
437,000000	0,004475
436,000000	0,005123
435,000000	0,005546
434,000000	0,005256
433,000000	0,005308
432,000000	0,005382
431,000000	0,005853
430,000000	0,005365
429,000000	0,005532
428,000000	0,006198
427,000000	0,006060
426,000000	0,006789
425,000000	0,006962
424,000000	0,007097
423,000000	0,006966
422,000000	0,007337
421,000000	0,007323
420,000000	0,007652
419,000000	0,008188
418,000000	0,008697
417,000000	0,008913
416,000000	0,009458
415,000000	0,010606
414,000000	0,011111
413,000000	0,011420
412,000000	0,012575
411,000000	0,013304
410,000000	0,014065
409,000000	0,014988
408,000000	0,015990
407,000000	0,016972
406,000000	0,018284
405,000000	0,019815
404,000000	0,021447
403,000000	0,023141
402,000000	0,025582
401,000000	0,028944
400,000000	0,032721
399,000000	0,038068
398,000000	0,044281
397,000000	0,052443
396,000000	0,062591
395,000000	0,075869
394,000000	0,092301
393,000000	0,113397
392,000000	0,139640
391,000000	0,169660
390,000000	0,203672
