PE UV       SUBTECH     SPECTRUM    ASCII       PEDS        4.00        
   -1
2.Sample.Raw.asc
20/11/02
13:44:34.00
20/11/02
13:44:34.00
Analyst

390,000000
1
Lambda 25
501s11081509
PerkinElmer UV WinLab 6.0.3.0730 / Lambda25 1.27

480
2
1
0
0
Both on
1
1
1
None
0
0
0
0
 
 
0
0
0
0
0
 
 
 
0
 
0
326
0
 
0
 
 
 
0
0
0
 
0
 
 
 
0
 
 
0
0
0
0
0
 
 
 
 
0
0


#HDR
-1
-1
#GR
nm
A
1.0
0.0
700,000000
-1,000000
311
8
0,064351
0,020079
#DATA
700,000000	0,020174
699,000000	0,020292
698,000000	0,020228
697,000000	0,020263
696,000000	0,020394
695,000000	0,020195
694,000000	0,020220
693,000000	0,020298
692,000000	0,020415
691,000000	0,020247
690,000000	0,020354
689,000000	0,020563
688,000000	0,020427
687,000000	0,020184
686,000000	0,020356
685,000000	0,020340
684,000000	0,020296
683,000000	0,020516
682,000000	0,020834
681,000000	0,020611
680,000000	0,020458
679,000000	0,020470
678,000000	0,020627
677,000000	0,020783
676,000000	0,020883
675,000000	0,020776
674,000000	0,020079
673,000000	0,020733
672,000000	0,020333
671,000000	0,020766
670,000000	0,020714
669,000000	0,020558
668,000000	0,020592
667,000000	0,020683
666,000000	0,020644
665,000000	0,020798
664,000000	0,020799
663,000000	0,020988
662,000000	0,020828
661,000000	0,020697
660,000000	0,020652
659,000000	0,021007
658,000000	0,020721
657,000000	0,020781
656,000000	0,020940
655,000000	0,020909
654,000000	0,020869
653,000000	0,021081
652,000000	0,021224
651,000000	0,021023
650,000000	0,020823
649,000000	0,021140
648,000000	0,021398
647,000000	0,020997
646,000000	0,021140
645,000000	0,021360
644,000000	0,020867
643,000000	0,020926
642,000000	0,021316
641,000000	0,021396
640,000000	0,021014
639,000000	0,021222
638,000000	0,021211
637,000000	0,020866
636,000000	0,021082
635,000000	0,021659
634,000000	0,021345
633,000000	0,021113
632,000000	0,021172
631,000000	0,021679
630,000000	0,021400
629,000000	0,021152
628,000000	0,021443
627,000000	0,021447
626,000000	0,021288
625,000000	0,021312
624,000000	0,021651
623,000000	0,021521
622,000000	0,021522
621,000000	0,021476
620,000000	0,021721
619,000000	0,021469
618,000000	0,021188
617,000000	0,021659
616,000000	0,021717
615,000000	0,021260
614,000000	0,021489
613,000000	0,021785
612,000000	0,021537
611,000000	0,021509
610,000000	0,022159
609,000000	0,021500
608,000000	0,021372
607,000000	0,021729
606,000000	0,021607
605,000000	0,021613
604,000000	0,021577
603,000000	0,022086
602,000000	0,021986
601,000000	0,021831
600,000000	0,022006
599,000000	0,022239
598,000000	0,021592
597,000000	0,021690
596,000000	0,022008
595,000000	0,022252
594,000000	0,021964
593,000000	0,021940
592,000000	0,022080
591,000000	0,022256
590,000000	0,021858
589,000000	0,021869
588,000000	0,022071
587,000000	0,021863
586,000000	0,021921
585,000000	0,022039
584,000000	0,022015
583,000000	0,022112
582,000000	0,022150
581,000000	0,022518
580,000000	0,022308
579,000000	0,022194
578,000000	0,022020
577,000000	0,022483
576,000000	0,022678
575,000000	0,022341
574,000000	0,022542
573,000000	0,022530
572,000000	0,022541
571,000000	0,022721
570,000000	0,022473
569,000000	0,022561
568,000000	0,022459
567,000000	0,022804
566,000000	0,022959
565,000000	0,022870
564,000000	0,022631
563,000000	0,022775
562,000000	0,023108
561,000000	0,022480
560,000000	0,023019
559,000000	0,022873
558,000000	0,023001
557,000000	0,022717
556,000000	0,022877
555,000000	0,023357
554,000000	0,022608
553,000000	0,022880
552,000000	0,023034
551,000000	0,023319
550,000000	0,023073
549,000000	0,023116
548,000000	0,023431
547,000000	0,023053
546,000000	0,023079
545,000000	0,023351
544,000000	0,023230
543,000000	0,023014
542,000000	0,023259
541,000000	0,023508
540,000000	0,023057
539,000000	0,022996
538,000000	0,023596
537,000000	0,023382
536,000000	0,023456
535,000000	0,023661
534,000000	0,023763
533,000000	0,023515
532,000000	0,023436
531,000000	0,023817
530,000000	0,023589
529,000000	0,023392
528,000000	0,023654
527,000000	0,023950
526,000000	0,023554
525,000000	0,023960
524,000000	0,023958
523,000000	0,024024
522,000000	0,023955
521,000000	0,024010
520,000000	0,023945
519,000000	0,023860
518,000000	0,024033
517,000000	0,023984
516,000000	0,024215
515,000000	0,024200
514,000000	0,024123
513,000000	0,024395
512,000000	0,024549
511,000000	0,023917
510,000000	0,024356
509,000000	0,024522
508,000000	0,024299
507,000000	0,024441
506,000000	0,024419
505,000000	0,024235
504,000000	0,024548
503,000000	0,024447
502,000000	0,024380
501,000000	0,024610
500,000000	0,024480
499,000000	0,024442
498,000000	0,024791
497,000000	0,024642
496,000000	0,025020
495,000000	0,024794
494,000000	0,024996
493,000000	0,024881
492,000000	0,025172
491,000000	0,025486
490,000000	0,025184
489,000000	0,024877
488,000000	0,024910
487,000000	0,025358
486,000000	0,025442
485,000000	0,025248
484,000000	0,025532
483,000000	0,025530
482,000000	0,025348
481,000000	0,025536
480,000000	0,025913
479,000000	0,025855
478,000000	0,025768
477,000000	0,026026
476,000000	0,026401
475,000000	0,026032
474,000000	0,026240
473,000000	0,026118
472,000000	0,026239
471,000000	0,026013
470,000000	0,026804
469,000000	0,026692
468,000000	0,026243
467,000000	0,026526
466,000000	0,026908
465,000000	0,026510
464,000000	0,026888
463,000000	0,027013
462,000000	0,027211
461,000000	0,026707
460,000000	0,027453
459,000000	0,027419
458,000000	0,027182
457,000000	0,027174
456,000000	0,028112
455,000000	0,027743
454,000000	0,027733
453,000000	0,027757
452,000000	0,028458
451,000000	0,028604
450,000000	0,028658
449,000000	0,028836
448,000000	0,028860
447,000000	0,028856
446,000000	0,029027
445,000000	0,029474
444,000000	0,029077
443,000000	0,029679
442,000000	0,029839
441,000000	0,030198
440,000000	0,030413
439,000000	0,030215
438,000000	0,030880
437,000000	0,030588
436,000000	0,031082
435,000000	0,031641
434,000000	0,031634
433,000000	0,031775
432,000000	0,032283
431,000000	0,032323
430,000000	0,032708
429,000000	0,033310
428,000000	0,033128
427,000000	0,033667
426,000000	0,034196
425,000000	0,034114
424,000000	0,034309
423,000000	0,034939
422,000000	0,035372
421,000000	0,034691
420,000000	0,035461
419,000000	0,035616
418,000000	0,036049
417,000000	0,036173
416,000000	0,036723
415,000000	0,037312
414,000000	0,037641
413,000000	0,037819
412,000000	0,038435
411,000000	0,038628
410,000000	0,039229
409,000000	0,040109
408,000000	0,040529
407,000000	0,041191
406,000000	0,042190
405,000000	0,043132
404,000000	0,044003
403,000000	0,044603
402,000000	0,046171
401,000000	0,047561
400,000000	0,048546
399,000000	0,049821
398,000000	0,051332
397,000000	0,052765
396,000000	0,054048
395,000000	0,056075
394,000000	0,057127
393,000000	0,059112
392,000000	0,060576
391,000000	0,062126
390,000000	0,064351
