PE UV       SUBTECH     SPECTRUM    ASCII       PEDS        4.00        
   -1
22.Sample.Raw.asc
20/11/02
13:29:59.00
20/11/02
13:29:59.00
Analyst

390,000000
1
Lambda 25
501s11081509
PerkinElmer UV WinLab 6.0.3.0730 / Lambda25 1.27

480
2
1
0
0
Both on
1
1
1
None
0
0
0
0
 
 
0
0
0
0
0
 
 
 
0
 
0
326
0
 
0
 
 
 
0
0
0
 
0
 
 
 
0
 
 
0
0
0
0
0
 
 
 
 
0
0


#HDR
-1
-1
#GR
nm
A
1.0
0.0
700,000000
-1,000000
311
8
0,574393
0,107847
#DATA
700,000000	0,107847
699,000000	0,108384
698,000000	0,108519
697,000000	0,109062
696,000000	0,109510
695,000000	0,109878
694,000000	0,110139
693,000000	0,110736
692,000000	0,110735
691,000000	0,111162
690,000000	0,111571
689,000000	0,112117
688,000000	0,112409
687,000000	0,112531
686,000000	0,113103
685,000000	0,113546
684,000000	0,113766
683,000000	0,114546
682,000000	0,115360
681,000000	0,115891
680,000000	0,115802
679,000000	0,116497
678,000000	0,116890
677,000000	0,117684
676,000000	0,118061
675,000000	0,118353
674,000000	0,118238
673,000000	0,118734
672,000000	0,119326
671,000000	0,119711
670,000000	0,120079
669,000000	0,120685
668,000000	0,121042
667,000000	0,121502
666,000000	0,121947
665,000000	0,122584
664,000000	0,122764
663,000000	0,123345
662,000000	0,123795
661,000000	0,124167
660,000000	0,124752
659,000000	0,125387
658,000000	0,125470
657,000000	0,126123
656,000000	0,126618
655,000000	0,126731
654,000000	0,127537
653,000000	0,127784
652,000000	0,128343
651,000000	0,129011
650,000000	0,129464
649,000000	0,130024
648,000000	0,130455
647,000000	0,131163
646,000000	0,131209
645,000000	0,131971
644,000000	0,132568
643,000000	0,133253
642,000000	0,133087
641,000000	0,134210
640,000000	0,134320
639,000000	0,135031
638,000000	0,135458
637,000000	0,136274
636,000000	0,136770
635,000000	0,137457
634,000000	0,138065
633,000000	0,138169
632,000000	0,138975
631,000000	0,139455
630,000000	0,139872
629,000000	0,140592
628,000000	0,141042
627,000000	0,141472
626,000000	0,142476
625,000000	0,142835
624,000000	0,142999
623,000000	0,143554
622,000000	0,144664
621,000000	0,144848
620,000000	0,145523
619,000000	0,146262
618,000000	0,146893
617,000000	0,147364
616,000000	0,147978
615,000000	0,148419
614,000000	0,149209
613,000000	0,149819
612,000000	0,150653
611,000000	0,151203
610,000000	0,152022
609,000000	0,152341
608,000000	0,153241
607,000000	0,153956
606,000000	0,154267
605,000000	0,155188
604,000000	0,155859
603,000000	0,156843
602,000000	0,157227
601,000000	0,157674
600,000000	0,158899
599,000000	0,159358
598,000000	0,159744
597,000000	0,160273
596,000000	0,161420
595,000000	0,162090
594,000000	0,162682
593,000000	0,163409
592,000000	0,163828
591,000000	0,164716
590,000000	0,165482
589,000000	0,165949
588,000000	0,166789
587,000000	0,167770
586,000000	0,168326
585,000000	0,168974
584,000000	0,169725
583,000000	0,170387
582,000000	0,171322
581,000000	0,171931
580,000000	0,173160
579,000000	0,173691
578,000000	0,174310
577,000000	0,175327
576,000000	0,176279
575,000000	0,176755
574,000000	0,177383
573,000000	0,178480
572,000000	0,179119
571,000000	0,180130
570,000000	0,180872
569,000000	0,181850
568,000000	0,182277
567,000000	0,182898
566,000000	0,184072
565,000000	0,185032
564,000000	0,185563
563,000000	0,186307
562,000000	0,187537
561,000000	0,187688
560,000000	0,189041
559,000000	0,190649
558,000000	0,191543
557,000000	0,192067
556,000000	0,193023
555,000000	0,194145
554,000000	0,194461
553,000000	0,195531
552,000000	0,196525
551,000000	0,197770
550,000000	0,198377
549,000000	0,199263
548,000000	0,200336
547,000000	0,200969
546,000000	0,201461
545,000000	0,202766
544,000000	0,203762
543,000000	0,204436
542,000000	0,205514
541,000000	0,206967
540,000000	0,207225
539,000000	0,207954
538,000000	0,209258
537,000000	0,209952
536,000000	0,210783
535,000000	0,212216
534,000000	0,213290
533,000000	0,213828
532,000000	0,214571
531,000000	0,216022
530,000000	0,216551
529,000000	0,217550
528,000000	0,218849
527,000000	0,220011
526,000000	0,220773
525,000000	0,222126
524,000000	0,223021
523,000000	0,223748
522,000000	0,225055
521,000000	0,226182
520,000000	0,227283
519,000000	0,227947
518,000000	0,229060
517,000000	0,230306
516,000000	0,231705
515,000000	0,232911
514,000000	0,233977
513,000000	0,235493
512,000000	0,236491
511,000000	0,237420
510,000000	0,238682
509,000000	0,239926
508,000000	0,240841
507,000000	0,242232
506,000000	0,243704
505,000000	0,245075
504,000000	0,246146
503,000000	0,247511
502,000000	0,248599
501,000000	0,250000
500,000000	0,251416
499,000000	0,252823
498,000000	0,254371
497,000000	0,255873
496,000000	0,257287
495,000000	0,258902
494,000000	0,260507
493,000000	0,261953
492,000000	0,263248
491,000000	0,265335
490,000000	0,266694
489,000000	0,267736
488,000000	0,269505
487,000000	0,271618
486,000000	0,272535
485,000000	0,274600
484,000000	0,276670
483,000000	0,278092
482,000000	0,279453
481,000000	0,281487
480,000000	0,283146
479,000000	0,284736
478,000000	0,286334
477,000000	0,288012
476,000000	0,289835
475,000000	0,291184
474,000000	0,293421
473,000000	0,295149
472,000000	0,296450
471,000000	0,298007
470,000000	0,300048
469,000000	0,301682
468,000000	0,303059
467,000000	0,305285
466,000000	0,307011
465,000000	0,308230
464,000000	0,310720
463,000000	0,312608
462,000000	0,313959
461,000000	0,316419
460,000000	0,317730
459,000000	0,319734
458,000000	0,321977
457,000000	0,324111
456,000000	0,327230
455,000000	0,328507
454,000000	0,330681
453,000000	0,332402
452,000000	0,335033
451,000000	0,337321
450,000000	0,339677
449,000000	0,342862
448,000000	0,344974
447,000000	0,347784
446,000000	0,350083
445,000000	0,352519
444,000000	0,355427
443,000000	0,358162
442,000000	0,361399
441,000000	0,364820
440,000000	0,367441
439,000000	0,370617
438,000000	0,374296
437,000000	0,376749
436,000000	0,380319
435,000000	0,384263
434,000000	0,387450
433,000000	0,391306
432,000000	0,394896
431,000000	0,399130
430,000000	0,402726
429,000000	0,406832
428,000000	0,410777
427,000000	0,413921
426,000000	0,418220
425,000000	0,422494
424,000000	0,425418
423,000000	0,429610
422,000000	0,433224
421,000000	0,432960
420,000000	0,435244
419,000000	0,438776
418,000000	0,442166
417,000000	0,445778
416,000000	0,448737
415,000000	0,452682
414,000000	0,455808
413,000000	0,459217
412,000000	0,462920
411,000000	0,466727
410,000000	0,470634
409,000000	0,474492
408,000000	0,478622
407,000000	0,482812
406,000000	0,486679
405,000000	0,490764
404,000000	0,495182
403,000000	0,499553
402,000000	0,504484
401,000000	0,509697
400,000000	0,514793
399,000000	0,519595
398,000000	0,524414
397,000000	0,530132
396,000000	0,535264
395,000000	0,540843
394,000000	0,547216
393,000000	0,553799
392,000000	0,560371
391,000000	0,567519
390,000000	0,574393
