PE UV       SUBTECH     SPECTRUM    ASCII       PEDS        4.00        
   -1
23.Sample.Raw.asc
20/11/02
13:55:31.00
20/11/02
13:55:31.00
Analyst

390,000000
1
Lambda 25
501s11081509
PerkinElmer UV WinLab 6.0.3.0730 / Lambda25 1.27

480
2
1
0
0
Both on
1
1
1
None
0
0
0
0
 
 
0
0
0
0
0
 
 
 
0
 
0
326
0
 
0
 
 
 
0
0
0
 
0
 
 
 
0
 
 
0
0
0
0
0
 
 
 
 
0
0


#HDR
-1
-1
#GR
nm
A
1.0
0.0
700,000000
-1,000000
311
8
0,346865
0,001840
#DATA
700,000000	0,002085
699,000000	0,002013
698,000000	0,001840
697,000000	0,002100
696,000000	0,002236
695,000000	0,002089
694,000000	0,002098
693,000000	0,002275
692,000000	0,002149
691,000000	0,002124
690,000000	0,002083
689,000000	0,002336
688,000000	0,002377
687,000000	0,002028
686,000000	0,002519
685,000000	0,002392
684,000000	0,002021
683,000000	0,002299
682,000000	0,002793
681,000000	0,002513
680,000000	0,002256
679,000000	0,002459
678,000000	0,002469
677,000000	0,002473
676,000000	0,002780
675,000000	0,002946
674,000000	0,002456
673,000000	0,002510
672,000000	0,002614
671,000000	0,002727
670,000000	0,002549
669,000000	0,002798
668,000000	0,002637
667,000000	0,002763
666,000000	0,002793
665,000000	0,003240
664,000000	0,002819
663,000000	0,003313
662,000000	0,003209
661,000000	0,002749
660,000000	0,002858
659,000000	0,003115
658,000000	0,002983
657,000000	0,003284
656,000000	0,003485
655,000000	0,003293
654,000000	0,003210
653,000000	0,003232
652,000000	0,003599
651,000000	0,003499
650,000000	0,003404
649,000000	0,003622
648,000000	0,003538
647,000000	0,003556
646,000000	0,003262
645,000000	0,003883
644,000000	0,003566
643,000000	0,003718
642,000000	0,003848
641,000000	0,004118
640,000000	0,003674
639,000000	0,004067
638,000000	0,004039
637,000000	0,004069
636,000000	0,003901
635,000000	0,004420
634,000000	0,004595
633,000000	0,004136
632,000000	0,003823
631,000000	0,004534
630,000000	0,004468
629,000000	0,004105
628,000000	0,004385
627,000000	0,004534
626,000000	0,004391
625,000000	0,004395
624,000000	0,004626
623,000000	0,004693
622,000000	0,004419
621,000000	0,004768
620,000000	0,004827
619,000000	0,004638
618,000000	0,004694
617,000000	0,005046
616,000000	0,005219
615,000000	0,004818
614,000000	0,005136
613,000000	0,005488
612,000000	0,005166
611,000000	0,005058
610,000000	0,005601
609,000000	0,005377
608,000000	0,005403
607,000000	0,005519
606,000000	0,005562
605,000000	0,005684
604,000000	0,005616
603,000000	0,005815
602,000000	0,006177
601,000000	0,005926
600,000000	0,006444
599,000000	0,006390
598,000000	0,006075
597,000000	0,006204
596,000000	0,006640
595,000000	0,006501
594,000000	0,006587
593,000000	0,006494
592,000000	0,006502
591,000000	0,006657
590,000000	0,006544
589,000000	0,006611
588,000000	0,006989
587,000000	0,006909
586,000000	0,006817
585,000000	0,007100
584,000000	0,007027
583,000000	0,007168
582,000000	0,007570
581,000000	0,007498
580,000000	0,007739
579,000000	0,007588
578,000000	0,008099
577,000000	0,007999
576,000000	0,008363
575,000000	0,007989
574,000000	0,008509
573,000000	0,008525
572,000000	0,008462
571,000000	0,009098
570,000000	0,008759
569,000000	0,009168
568,000000	0,009254
567,000000	0,008973
566,000000	0,009343
565,000000	0,009520
564,000000	0,009582
563,000000	0,009533
562,000000	0,010534
561,000000	0,009744
560,000000	0,010195
559,000000	0,010302
558,000000	0,010604
557,000000	0,010495
556,000000	0,010819
555,000000	0,011165
554,000000	0,010863
553,000000	0,011072
552,000000	0,011201
551,000000	0,011857
550,000000	0,011505
549,000000	0,012370
548,000000	0,012123
547,000000	0,012341
546,000000	0,012241
545,000000	0,012539
544,000000	0,012815
543,000000	0,012814
542,000000	0,013182
541,000000	0,013582
540,000000	0,013550
539,000000	0,013333
538,000000	0,014017
537,000000	0,013763
536,000000	0,013892
535,000000	0,014410
534,000000	0,014757
533,000000	0,014636
532,000000	0,014813
531,000000	0,015101
530,000000	0,015182
529,000000	0,015306
528,000000	0,015815
527,000000	0,015993
526,000000	0,015987
525,000000	0,016418
524,000000	0,016584
523,000000	0,016920
522,000000	0,016987
521,000000	0,017342
520,000000	0,017645
519,000000	0,017911
518,000000	0,017969
517,000000	0,017862
516,000000	0,018407
515,000000	0,018767
514,000000	0,018998
513,000000	0,018896
512,000000	0,019606
511,000000	0,019826
510,000000	0,019846
509,000000	0,020118
508,000000	0,020192
507,000000	0,020689
506,000000	0,020769
505,000000	0,020958
504,000000	0,021439
503,000000	0,021520
502,000000	0,021744
501,000000	0,022133
500,000000	0,022386
499,000000	0,022557
498,000000	0,023073
497,000000	0,023361
496,000000	0,023574
495,000000	0,023900
494,000000	0,024484
493,000000	0,024574
492,000000	0,024878
491,000000	0,025183
490,000000	0,025335
489,000000	0,025688
488,000000	0,026038
487,000000	0,026598
486,000000	0,026803
485,000000	0,026894
484,000000	0,027787
483,000000	0,028059
482,000000	0,028199
481,000000	0,028519
480,000000	0,029232
479,000000	0,029695
478,000000	0,029748
477,000000	0,030067
476,000000	0,030857
475,000000	0,031082
474,000000	0,031522
473,000000	0,031693
472,000000	0,032283
471,000000	0,032720
470,000000	0,033264
469,000000	0,033655
468,000000	0,033633
467,000000	0,034254
466,000000	0,034900
465,000000	0,035254
464,000000	0,035793
463,000000	0,036399
462,000000	0,037022
461,000000	0,037131
460,000000	0,037931
459,000000	0,038236
458,000000	0,038644
457,000000	0,039411
456,000000	0,040411
455,000000	0,040763
454,000000	0,041071
453,000000	0,041885
452,000000	0,041993
451,000000	0,042952
450,000000	0,044012
449,000000	0,044427
448,000000	0,045062
447,000000	0,046164
446,000000	0,046482
445,000000	0,047281
444,000000	0,047913
443,000000	0,048824
442,000000	0,049586
441,000000	0,050512
440,000000	0,051182
439,000000	0,052368
438,000000	0,053019
437,000000	0,053994
436,000000	0,054669
435,000000	0,055688
434,000000	0,056732
433,000000	0,058010
432,000000	0,059118
431,000000	0,060129
430,000000	0,061278
429,000000	0,062223
428,000000	0,063369
427,000000	0,064534
426,000000	0,066083
425,000000	0,067127
424,000000	0,068229
423,000000	0,069392
422,000000	0,070572
421,000000	0,070722
420,000000	0,071750
419,000000	0,073413
418,000000	0,074982
417,000000	0,075793
416,000000	0,077198
415,000000	0,078809
414,000000	0,080437
413,000000	0,081283
412,000000	0,083302
411,000000	0,085083
410,000000	0,086812
409,000000	0,088844
408,000000	0,090850
407,000000	0,093179
406,000000	0,095734
405,000000	0,098342
404,000000	0,101467
403,000000	0,104762
402,000000	0,108817
401,000000	0,113972
400,000000	0,119244
399,000000	0,126587
398,000000	0,134415
397,000000	0,144301
396,000000	0,156656
395,000000	0,172594
394,000000	0,192696
393,000000	0,218167
392,000000	0,251965
391,000000	0,293803
390,000000	0,346865
