PE UV       SUBTECH     SPECTRUM    ASCII       PEDS        4.00        
   -1
3.Sample.Raw.asc
20/11/02
13:16:36.00
20/11/02
13:16:36.00
Analyst

390,000000
1
Lambda 25
501s11081509
PerkinElmer UV WinLab 6.0.3.0730 / Lambda25 1.27

480
2
1
0
0
Both on
1
1
1
None
0
0
0
0
 
 
0
0
0
0
0
 
 
 
0
 
0
326
0
 
0
 
 
 
0
0
0
 
0
 
 
 
0
 
 
0
0
0
0
0
 
 
 
 
0
0


#HDR
-1
-1
#GR
nm
A
1.0
0.0
700,000000
-1,000000
311
8
0,381094
0,007317
#DATA
700,000000	0,007526
699,000000	0,007473
698,000000	0,007317
697,000000	0,007606
696,000000	0,007893
695,000000	0,007556
694,000000	0,007687
693,000000	0,008036
692,000000	0,007868
691,000000	0,007794
690,000000	0,008112
689,000000	0,008165
688,000000	0,008151
687,000000	0,008033
686,000000	0,008410
685,000000	0,008360
684,000000	0,008397
683,000000	0,008704
682,000000	0,008932
681,000000	0,008825
680,000000	0,009143
679,000000	0,009168
678,000000	0,008972
677,000000	0,009169
676,000000	0,009449
675,000000	0,009498
674,000000	0,008971
673,000000	0,009577
672,000000	0,009361
671,000000	0,009692
670,000000	0,009618
669,000000	0,010113
668,000000	0,009802
667,000000	0,009985
666,000000	0,010034
665,000000	0,010637
664,000000	0,010180
663,000000	0,010689
662,000000	0,010884
661,000000	0,010477
660,000000	0,010513
659,000000	0,011278
658,000000	0,011079
657,000000	0,011052
656,000000	0,011363
655,000000	0,011420
654,000000	0,011452
653,000000	0,011605
652,000000	0,011858
651,000000	0,012151
650,000000	0,012037
649,000000	0,011877
648,000000	0,012442
647,000000	0,012592
646,000000	0,012098
645,000000	0,012903
644,000000	0,012991
643,000000	0,012818
642,000000	0,013080
641,000000	0,013618
640,000000	0,013509
639,000000	0,013574
638,000000	0,013758
637,000000	0,014055
636,000000	0,013976
635,000000	0,014263
634,000000	0,014775
633,000000	0,014560
632,000000	0,014475
631,000000	0,014965
630,000000	0,015384
629,000000	0,015188
628,000000	0,015516
627,000000	0,015586
626,000000	0,015831
625,000000	0,015664
624,000000	0,016116
623,000000	0,016454
622,000000	0,016534
621,000000	0,016734
620,000000	0,017097
619,000000	0,017310
618,000000	0,017113
617,000000	0,017918
616,000000	0,017828
615,000000	0,017733
614,000000	0,017947
613,000000	0,018763
612,000000	0,018641
611,000000	0,018695
610,000000	0,019247
609,000000	0,019517
608,000000	0,019454
607,000000	0,019609
606,000000	0,019988
605,000000	0,020326
604,000000	0,020460
603,000000	0,020955
602,000000	0,021174
601,000000	0,021053
600,000000	0,021854
599,000000	0,022038
598,000000	0,021990
597,000000	0,022071
596,000000	0,022804
595,000000	0,022974
594,000000	0,023028
593,000000	0,023521
592,000000	0,023697
591,000000	0,023888
590,000000	0,023723
589,000000	0,024466
588,000000	0,024759
587,000000	0,024883
586,000000	0,025391
585,000000	0,025775
584,000000	0,025830
583,000000	0,026135
582,000000	0,026720
581,000000	0,027008
580,000000	0,027291
579,000000	0,027510
578,000000	0,027884
577,000000	0,028232
576,000000	0,028783
575,000000	0,028938
574,000000	0,029239
573,000000	0,029446
572,000000	0,030029
571,000000	0,030433
570,000000	0,030484
569,000000	0,030844
568,000000	0,031614
567,000000	0,032103
566,000000	0,032267
565,000000	0,032880
564,000000	0,033262
563,000000	0,033184
562,000000	0,034349
561,000000	0,033988
560,000000	0,034977
559,000000	0,035663
558,000000	0,036508
557,000000	0,036709
556,000000	0,037131
555,000000	0,037891
554,000000	0,037940
553,000000	0,038734
552,000000	0,038805
551,000000	0,039717
550,000000	0,040068
549,000000	0,040866
548,000000	0,041219
547,000000	0,041769
546,000000	0,042296
545,000000	0,042838
544,000000	0,043544
543,000000	0,043931
542,000000	0,044566
541,000000	0,045179
540,000000	0,045569
539,000000	0,046162
538,000000	0,046953
537,000000	0,047179
536,000000	0,048059
535,000000	0,048757
534,000000	0,049309
533,000000	0,049877
532,000000	0,050284
531,000000	0,050936
530,000000	0,051327
529,000000	0,052583
528,000000	0,053005
527,000000	0,053978
526,000000	0,054448
525,000000	0,055335
524,000000	0,055643
523,000000	0,056391
522,000000	0,057313
521,000000	0,058041
520,000000	0,058617
519,000000	0,059590
518,000000	0,060745
517,000000	0,061024
516,000000	0,062072
515,000000	0,062929
514,000000	0,064039
513,000000	0,064300
512,000000	0,065606
511,000000	0,066457
510,000000	0,067262
509,000000	0,067874
508,000000	0,068959
507,000000	0,069861
506,000000	0,070556
505,000000	0,071446
504,000000	0,072547
503,000000	0,073300
502,000000	0,074124
501,000000	0,075277
500,000000	0,076303
499,000000	0,077111
498,000000	0,078423
497,000000	0,079605
496,000000	0,080382
495,000000	0,081425
494,000000	0,082952
493,000000	0,083949
492,000000	0,084523
491,000000	0,085861
490,000000	0,087167
489,000000	0,087822
488,000000	0,089149
487,000000	0,090517
486,000000	0,091939
485,000000	0,092812
484,000000	0,094318
483,000000	0,095674
482,000000	0,096583
481,000000	0,097854
480,000000	0,099594
479,000000	0,100571
478,000000	0,102039
477,000000	0,103772
476,000000	0,105353
475,000000	0,105869
474,000000	0,107410
473,000000	0,109016
472,000000	0,110333
471,000000	0,111890
470,000000	0,113523
469,000000	0,115119
468,000000	0,116043
467,000000	0,118146
466,000000	0,119920
465,000000	0,121092
464,000000	0,122798
463,000000	0,124330
462,000000	0,126474
461,000000	0,127957
460,000000	0,129620
459,000000	0,131965
458,000000	0,133474
457,000000	0,135195
456,000000	0,137896
455,000000	0,139100
454,000000	0,140950
453,000000	0,143014
452,000000	0,144822
451,000000	0,147009
450,000000	0,148971
449,000000	0,150961
448,000000	0,153290
447,000000	0,155083
446,000000	0,157075
445,000000	0,159260
444,000000	0,161196
443,000000	0,163754
442,000000	0,166220
441,000000	0,168686
440,000000	0,171063
439,000000	0,173299
438,000000	0,175817
437,000000	0,178010
436,000000	0,180683
435,000000	0,183712
434,000000	0,186644
433,000000	0,188813
432,000000	0,191780
431,000000	0,194445
430,000000	0,197731
429,000000	0,200892
428,000000	0,204159
427,000000	0,207248
426,000000	0,211046
425,000000	0,213762
424,000000	0,217420
423,000000	0,220621
422,000000	0,224450
421,000000	0,225573
420,000000	0,228453
419,000000	0,231968
418,000000	0,235774
417,000000	0,239418
416,000000	0,243099
415,000000	0,247072
414,000000	0,251396
413,000000	0,255080
412,000000	0,259500
411,000000	0,263886
410,000000	0,268322
409,000000	0,272993
408,000000	0,277812
407,000000	0,282883
406,000000	0,287926
405,000000	0,293175
404,000000	0,298365
403,000000	0,303853
402,000000	0,309300
401,000000	0,315170
400,000000	0,321032
399,000000	0,326411
398,000000	0,332231
397,000000	0,338499
396,000000	0,344370
395,000000	0,350405
394,000000	0,356416
393,000000	0,362528
392,000000	0,368709
391,000000	0,374778
390,000000	0,381094
