PE UV       SUBTECH     SPECTRUM    ASCII       PEDS        4.00        
   -1
31.Sample.Raw.asc
20/11/02
13:58:03.00
20/11/02
13:58:03.00
Analyst

390,000000
1
Lambda 25
501s11081509
PerkinElmer UV WinLab 6.0.3.0730 / Lambda25 1.27

480
2
1
0
0
Both on
1
1
1
None
0
0
0
0
 
 
0
0
0
0
0
 
 
 
0
 
0
326
0
 
0
 
 
 
0
0
0
 
0
 
 
 
0
 
 
0
0
0
0
0
 
 
 
 
0
0


#HDR
-1
-1
#GR
nm
A
1.0
0.0
700,000000
-1,000000
311
8
0,051297
-0,000520
#DATA
700,000000	-0,000229
699,000000	-0,000446
698,000000	-0,000520
697,000000	-0,000324
696,000000	-0,000197
695,000000	-0,000488
694,000000	-0,000275
693,000000	-0,000057
692,000000	-0,000259
691,000000	-0,000312
690,000000	0,000123
689,000000	0,000062
688,000000	-0,000062
687,000000	-0,000226
686,000000	-0,000095
685,000000	-0,000127
684,000000	-0,000387
683,000000	-0,000111
682,000000	0,000037
681,000000	-0,000218
680,000000	-0,000280
679,000000	0,000219
678,000000	-0,000016
677,000000	0,000124
676,000000	0,000280
675,000000	0,000549
674,000000	-0,000186
673,000000	-0,000103
672,000000	0,000074
671,000000	0,000124
670,000000	0,000021
669,000000	0,000025
668,000000	0,000116
667,000000	0,000261
666,000000	-0,000041
665,000000	0,000385
664,000000	-0,000112
663,000000	0,000290
662,000000	0,000277
661,000000	0,000157
660,000000	0,000344
659,000000	0,000518
658,000000	0,000340
657,000000	0,000559
656,000000	0,000414
655,000000	0,000352
654,000000	0,000033
653,000000	0,000340
652,000000	0,000464
651,000000	0,000286
650,000000	0,000323
649,000000	0,000676
648,000000	0,000431
647,000000	0,000307
646,000000	0,000274
645,000000	0,000299
644,000000	0,000270
643,000000	0,000091
642,000000	0,000374
641,000000	0,000689
640,000000	0,000150
639,000000	0,000482
638,000000	0,000494
637,000000	0,000274
636,000000	0,000195
635,000000	0,000798
634,000000	0,000619
633,000000	0,000216
632,000000	0,000407
631,000000	0,000856
630,000000	0,000416
629,000000	0,000349
628,000000	0,000607
627,000000	0,000545
626,000000	0,000345
625,000000	0,000320
624,000000	0,000620
623,000000	0,000607
622,000000	0,000774
621,000000	0,000678
620,000000	0,000507
619,000000	0,000295
618,000000	0,000195
617,000000	0,000711
616,000000	0,000661
615,000000	0,000262
614,000000	0,000524
613,000000	0,000832
612,000000	0,000666
611,000000	0,000424
610,000000	0,000844
609,000000	0,000678
608,000000	0,000304
607,000000	0,000624
606,000000	0,000641
605,000000	0,000628
604,000000	0,000612
603,000000	0,000915
602,000000	0,000978
601,000000	0,000799
600,000000	0,000977
599,000000	0,000973
598,000000	0,000516
597,000000	0,000566
596,000000	0,000894
595,000000	0,001161
594,000000	0,000865
593,000000	0,000840
592,000000	0,000774
591,000000	0,000845
590,000000	0,000829
589,000000	0,000688
588,000000	0,000964
587,000000	0,000760
586,000000	0,001074
585,000000	0,000627
584,000000	0,000821
583,000000	0,000935
582,000000	0,001280
581,000000	0,001218
580,000000	0,001358
579,000000	0,000791
578,000000	0,000737
577,000000	0,001207
576,000000	0,001266
575,000000	0,001099
574,000000	0,001244
573,000000	0,001092
572,000000	0,001393
571,000000	0,001639
570,000000	0,001517
569,000000	0,001645
568,000000	0,001428
567,000000	0,000996
566,000000	0,001458
565,000000	0,001743
564,000000	0,001558
563,000000	0,001320
562,000000	0,002321
561,000000	0,001614
560,000000	0,001971
559,000000	0,001749
558,000000	0,002253
557,000000	0,001472
556,000000	0,002110
555,000000	0,002305
554,000000	0,001813
553,000000	0,001664
552,000000	0,002004
551,000000	0,002291
550,000000	0,001999
549,000000	0,002436
548,000000	0,002504
547,000000	0,002418
546,000000	0,002032
545,000000	0,002325
544,000000	0,002571
543,000000	0,002240
542,000000	0,002647
541,000000	0,002914
540,000000	0,002487
539,000000	0,002593
538,000000	0,002910
537,000000	0,002818
536,000000	0,002927
535,000000	0,003172
534,000000	0,002895
533,000000	0,003187
532,000000	0,003003
531,000000	0,003113
530,000000	0,003098
529,000000	0,003178
528,000000	0,003174
527,000000	0,003088
526,000000	0,003336
525,000000	0,003615
524,000000	0,003518
523,000000	0,003570
522,000000	0,003812
521,000000	0,003857
520,000000	0,003556
519,000000	0,003474
518,000000	0,004137
517,000000	0,003747
516,000000	0,003930
515,000000	0,003985
514,000000	0,004417
513,000000	0,004047
512,000000	0,004216
511,000000	0,004436
510,000000	0,004094
509,000000	0,004413
508,000000	0,004133
507,000000	0,004535
506,000000	0,004573
505,000000	0,004300
504,000000	0,004851
503,000000	0,005033
502,000000	0,004576
501,000000	0,004621
500,000000	0,004897
499,000000	0,004731
498,000000	0,004844
497,000000	0,005251
496,000000	0,005501
495,000000	0,005497
494,000000	0,005664
493,000000	0,005618
492,000000	0,005346
491,000000	0,005920
490,000000	0,005645
489,000000	0,005798
488,000000	0,005995
487,000000	0,006123
486,000000	0,006451
485,000000	0,006295
484,000000	0,006504
483,000000	0,006761
482,000000	0,006703
481,000000	0,006762
480,000000	0,007038
479,000000	0,007405
478,000000	0,007425
477,000000	0,007322
476,000000	0,007809
475,000000	0,007763
474,000000	0,008065
473,000000	0,007848
472,000000	0,008172
471,000000	0,008482
470,000000	0,008721
469,000000	0,008508
468,000000	0,008500
467,000000	0,009286
466,000000	0,009323
465,000000	0,009176
464,000000	0,009953
463,000000	0,009931
462,000000	0,010053
461,000000	0,010123
460,000000	0,010512
459,000000	0,010957
458,000000	0,010477
457,000000	0,010673
456,000000	0,011692
455,000000	0,011811
454,000000	0,012021
453,000000	0,011772
452,000000	0,012272
451,000000	0,012416
450,000000	0,013169
449,000000	0,013204
448,000000	0,013468
447,000000	0,013858
446,000000	0,013877
445,000000	0,014149
444,000000	0,014260
443,000000	0,014489
442,000000	0,015206
441,000000	0,015275
440,000000	0,015515
439,000000	0,015789
438,000000	0,016440
437,000000	0,016484
436,000000	0,016292
435,000000	0,017602
434,000000	0,017560
433,000000	0,017771
432,000000	0,018342
431,000000	0,018779
430,000000	0,018929
429,000000	0,019746
428,000000	0,019414
427,000000	0,020340
426,000000	0,020899
425,000000	0,021052
424,000000	0,021134
423,000000	0,022052
422,000000	0,022364
421,000000	0,022176
420,000000	0,022665
419,000000	0,023227
418,000000	0,023730
417,000000	0,024015
416,000000	0,024280
415,000000	0,025218
414,000000	0,025591
413,000000	0,025716
412,000000	0,026464
411,000000	0,027184
410,000000	0,027634
409,000000	0,028297
408,000000	0,029150
407,000000	0,029815
406,000000	0,030439
405,000000	0,031617
404,000000	0,032491
403,000000	0,032975
402,000000	0,034276
401,000000	0,035858
400,000000	0,036344
399,000000	0,037631
398,000000	0,039089
397,000000	0,040264
396,000000	0,041598
395,000000	0,043091
394,000000	0,044625
393,000000	0,046462
392,000000	0,047880
391,000000	0,049350
390,000000	0,051297
