PE UV       SUBTECH     SPECTRUM    ASCII       PEDS        4.00        
   -1
33.Sample.Raw.asc
20/11/02
14:00:06.00
20/11/02
14:00:06.00
Analyst

390,000000
1
Lambda 25
501s11081509
PerkinElmer UV WinLab 6.0.3.0730 / Lambda25 1.27

480
2
1
0
0
Both on
1
1
1
None
0
0
0
0
 
 
0
0
0
0
0
 
 
 
0
 
0
326
0
 
0
 
 
 
0
0
0
 
0
 
 
 
0
 
 
0
0
0
0
0
 
 
 
 
0
0


#HDR
-1
-1
#GR
nm
A
1.0
0.0
700,000000
-1,000000
311
8
0,168066
-0,000996
#DATA
700,000000	-0,000401
699,000000	-0,000590
698,000000	-0,000438
697,000000	-0,000500
696,000000	-0,000332
695,000000	-0,000525
694,000000	-0,000349
693,000000	-0,000279
692,000000	-0,000574
691,000000	-0,000312
690,000000	-0,000111
689,000000	-0,000300
688,000000	-0,000546
687,000000	-0,000407
686,000000	-0,000427
685,000000	-0,000506
684,000000	-0,000436
683,000000	-0,000169
682,000000	-0,000523
681,000000	-0,000432
680,000000	-0,000536
679,000000	-0,000268
678,000000	-0,000692
677,000000	-0,000412
676,000000	-0,000169
675,000000	-0,000416
674,000000	-0,000726
673,000000	-0,000479
672,000000	-0,000566
671,000000	-0,000562
670,000000	-0,000735
669,000000	-0,000425
668,000000	-0,000487
667,000000	-0,000719
666,000000	-0,000575
665,000000	-0,000194
664,000000	-0,000996
663,000000	-0,000422
662,000000	-0,000083
661,000000	-0,000410
660,000000	-0,000509
659,000000	-0,000298
658,000000	-0,000277
657,000000	-0,000178
656,000000	-0,000368
655,000000	-0,000277
654,000000	-0,000191
653,000000	-0,000443
652,000000	-0,000402
651,000000	-0,000178
650,000000	-0,000224
649,000000	-0,000390
648,000000	-0,000166
647,000000	-0,000303
646,000000	-0,000411
645,000000	-0,000232
644,000000	-0,000153
643,000000	-0,000382
642,000000	-0,000286
641,000000	0,000083
640,000000	-0,000490
639,000000	-0,000012
638,000000	-0,000386
637,000000	-0,000349
636,000000	0,000174
635,000000	0,000054
634,000000	0,000108
633,000000	-0,000199
632,000000	-0,000303
631,000000	0,000066
630,000000	-0,000154
629,000000	-0,000108
628,000000	-0,000025
627,000000	-0,000166
626,000000	0,000162
625,000000	0,000121
624,000000	-0,000017
623,000000	0,000145
622,000000	0,000220
621,000000	0,000166
620,000000	0,000154
619,000000	0,000042
618,000000	0,000200
617,000000	0,000183
616,000000	0,000457
615,000000	0,000250
614,000000	0,000624
613,000000	0,000416
612,000000	0,000337
611,000000	0,000545
610,000000	0,000824
609,000000	0,000658
608,000000	0,000770
607,000000	0,001145
606,000000	0,000841
605,000000	0,000933
604,000000	0,001153
603,000000	0,001582
602,000000	0,001419
601,000000	0,001453
600,000000	0,001894
599,000000	0,001990
598,000000	0,001896
597,000000	0,002179
596,000000	0,002450
595,000000	0,002600
594,000000	0,002572
593,000000	0,002722
592,000000	0,003067
591,000000	0,003157
590,000000	0,003167
589,000000	0,003736
588,000000	0,004037
587,000000	0,003695
586,000000	0,004339
585,000000	0,004824
584,000000	0,004635
583,000000	0,005384
582,000000	0,005838
581,000000	0,006296
580,000000	0,006532
579,000000	0,006831
578,000000	0,007230
577,000000	0,007712
576,000000	0,007890
575,000000	0,008467
574,000000	0,009112
573,000000	0,009595
572,000000	0,010221
571,000000	0,010755
570,000000	0,011030
569,000000	0,011538
568,000000	0,011725
567,000000	0,012388
566,000000	0,013125
565,000000	0,013493
564,000000	0,013957
563,000000	0,014100
562,000000	0,015414
561,000000	0,015391
560,000000	0,016249
559,000000	0,017388
558,000000	0,018323
557,000000	0,018559
556,000000	0,019183
555,000000	0,020130
554,000000	0,020444
553,000000	0,021427
552,000000	0,022106
551,000000	0,023270
550,000000	0,023372
549,000000	0,024753
548,000000	0,025127
547,000000	0,026246
546,000000	0,026619
545,000000	0,027852
544,000000	0,028601
543,000000	0,029450
542,000000	0,030907
541,000000	0,032071
540,000000	0,032187
539,000000	0,033245
538,000000	0,034827
537,000000	0,035393
536,000000	0,036539
535,000000	0,038163
534,000000	0,039144
533,000000	0,039961
532,000000	0,041177
531,000000	0,042489
530,000000	0,043736
529,000000	0,044756
528,000000	0,046116
527,000000	0,048050
526,000000	0,049046
525,000000	0,050343
524,000000	0,051664
523,000000	0,053062
522,000000	0,054218
521,000000	0,055643
520,000000	0,057024
519,000000	0,058568
518,000000	0,059654
517,000000	0,060922
516,000000	0,062315
515,000000	0,063652
514,000000	0,065146
513,000000	0,066474
512,000000	0,067687
511,000000	0,068888
510,000000	0,070232
509,000000	0,071444
508,000000	0,072922
507,000000	0,074171
506,000000	0,075514
505,000000	0,077047
504,000000	0,078487
503,000000	0,080130
502,000000	0,081272
501,000000	0,082695
500,000000	0,084161
499,000000	0,085036
498,000000	0,086770
497,000000	0,088467
496,000000	0,090038
495,000000	0,091391
494,000000	0,093025
493,000000	0,094596
492,000000	0,095593
491,000000	0,097378
490,000000	0,098384
489,000000	0,099997
488,000000	0,101209
487,000000	0,102912
486,000000	0,104568
485,000000	0,105689
484,000000	0,107263
483,000000	0,108405
482,000000	0,109501
481,000000	0,110559
480,000000	0,112074
479,000000	0,113080
478,000000	0,114148
477,000000	0,115106
476,000000	0,116378
475,000000	0,117360
474,000000	0,118200
473,000000	0,118903
472,000000	0,119672
471,000000	0,120521
470,000000	0,121613
469,000000	0,122431
468,000000	0,123349
467,000000	0,124047
466,000000	0,124791
465,000000	0,125234
464,000000	0,126752
463,000000	0,126543
462,000000	0,127616
461,000000	0,127906
460,000000	0,128715
459,000000	0,129101
458,000000	0,129348
457,000000	0,129913
456,000000	0,130934
455,000000	0,130850
454,000000	0,131377
453,000000	0,131857
452,000000	0,132029
451,000000	0,132201
450,000000	0,132722
449,000000	0,132792
448,000000	0,132508
447,000000	0,132803
446,000000	0,133243
445,000000	0,133076
444,000000	0,132955
443,000000	0,133119
442,000000	0,133441
441,000000	0,133077
440,000000	0,133361
439,000000	0,133777
438,000000	0,133454
437,000000	0,133216
436,000000	0,133545
435,000000	0,133608
434,000000	0,132740
433,000000	0,133336
432,000000	0,133237
431,000000	0,133794
430,000000	0,133639
429,000000	0,134421
428,000000	0,134254
427,000000	0,133837
426,000000	0,135023
425,000000	0,134489
424,000000	0,134750
423,000000	0,134160
422,000000	0,135012
421,000000	0,134237
420,000000	0,134034
419,000000	0,134286
418,000000	0,134847
417,000000	0,134526
416,000000	0,134628
415,000000	0,134866
414,000000	0,135176
413,000000	0,134812
412,000000	0,135380
411,000000	0,135467
410,000000	0,136249
409,000000	0,136542
408,000000	0,137208
407,000000	0,137816
406,000000	0,138923
405,000000	0,139784
404,000000	0,141150
403,000000	0,141816
402,000000	0,143704
401,000000	0,145796
400,000000	0,147676
399,000000	0,149661
398,000000	0,151464
397,000000	0,153635
396,000000	0,156192
395,000000	0,157964
394,000000	0,160227
393,000000	0,162825
392,000000	0,164810
391,000000	0,166426
390,000000	0,168066
