PE UV       SUBTECH     SPECTRUM    ASCII       PEDS        4.00        
   -1
36.Sample.Raw.asc
20/11/02
13:31:52.00
20/11/02
13:31:52.00
Analyst

390,000000
1
Lambda 25
501s11081509
PerkinElmer UV WinLab 6.0.3.0730 / Lambda25 1.27

480
2
1
0
0
Both on
1
1
1
None
0
0
0
0
 
 
0
0
0
0
0
 
 
 
0
 
0
326
0
 
0
 
 
 
0
0
0
 
0
 
 
 
0
 
 
0
0
0
0
0
 
 
 
 
0
0


#HDR
-1
-1
#GR
nm
A
1.0
0.0
700,000000
-1,000000
311
8
0,018554
0,003507
#DATA
700,000000	0,003767
699,000000	0,003753
698,000000	0,003507
697,000000	0,003515
696,000000	0,003962
695,000000	0,003857
694,000000	0,003651
693,000000	0,003863
692,000000	0,003757
691,000000	0,003753
690,000000	0,003633
689,000000	0,003841
688,000000	0,003880
687,000000	0,003807
686,000000	0,003828
685,000000	0,003988
684,000000	0,003889
683,000000	0,003925
682,000000	0,004212
681,000000	0,003962
680,000000	0,003759
679,000000	0,004196
678,000000	0,004198
677,000000	0,004231
676,000000	0,004397
675,000000	0,004415
674,000000	0,003879
673,000000	0,004061
672,000000	0,003896
671,000000	0,004022
670,000000	0,003964
669,000000	0,004244
668,000000	0,004140
667,000000	0,004084
666,000000	0,004202
665,000000	0,004525
664,000000	0,004217
663,000000	0,004444
662,000000	0,004344
661,000000	0,004146
660,000000	0,004465
659,000000	0,004506
658,000000	0,004173
657,000000	0,004642
656,000000	0,004551
655,000000	0,004359
654,000000	0,004611
653,000000	0,004462
652,000000	0,004561
651,000000	0,004469
650,000000	0,004772
649,000000	0,004476
648,000000	0,004643
647,000000	0,004439
646,000000	0,004560
645,000000	0,004666
644,000000	0,004621
643,000000	0,004699
642,000000	0,004788
641,000000	0,004923
640,000000	0,004735
639,000000	0,004876
638,000000	0,004878
637,000000	0,004728
636,000000	0,004652
635,000000	0,005033
634,000000	0,005061
633,000000	0,004711
632,000000	0,004851
631,000000	0,005038
630,000000	0,005103
629,000000	0,004907
628,000000	0,005049
627,000000	0,004895
626,000000	0,004878
625,000000	0,005169
624,000000	0,005105
623,000000	0,005197
622,000000	0,005116
621,000000	0,005239
620,000000	0,004869
619,000000	0,005100
618,000000	0,005060
617,000000	0,005437
616,000000	0,005362
615,000000	0,005318
614,000000	0,005493
613,000000	0,005408
612,000000	0,005292
611,000000	0,005092
610,000000	0,005908
609,000000	0,005293
608,000000	0,005365
607,000000	0,005570
606,000000	0,005621
605,000000	0,005423
604,000000	0,005662
603,000000	0,005676
602,000000	0,005756
601,000000	0,005354
600,000000	0,006175
599,000000	0,006032
598,000000	0,005334
597,000000	0,005673
596,000000	0,005814
595,000000	0,005759
594,000000	0,005937
593,000000	0,006035
592,000000	0,005735
591,000000	0,005649
590,000000	0,005822
589,000000	0,005770
588,000000	0,005834
587,000000	0,005736
586,000000	0,006143
585,000000	0,005755
584,000000	0,005783
583,000000	0,006127
582,000000	0,006263
581,000000	0,006071
580,000000	0,006157
579,000000	0,006042
578,000000	0,006233
577,000000	0,006204
576,000000	0,006759
575,000000	0,006268
574,000000	0,006575
573,000000	0,006362
572,000000	0,006398
571,000000	0,006714
570,000000	0,006524
569,000000	0,006634
568,000000	0,006879
567,000000	0,006689
566,000000	0,006588
565,000000	0,007018
564,000000	0,006987
563,000000	0,006537
562,000000	0,006989
561,000000	0,006853
560,000000	0,007122
559,000000	0,006837
558,000000	0,007148
557,000000	0,006775
556,000000	0,006989
555,000000	0,007287
554,000000	0,007122
553,000000	0,007020
552,000000	0,007265
551,000000	0,007569
550,000000	0,007238
549,000000	0,007318
548,000000	0,007405
547,000000	0,007622
546,000000	0,007182
545,000000	0,007430
544,000000	0,007433
543,000000	0,007628
542,000000	0,007607
541,000000	0,007664
540,000000	0,007555
539,000000	0,007353
538,000000	0,007732
537,000000	0,007732
536,000000	0,007798
535,000000	0,008158
534,000000	0,007935
533,000000	0,007759
532,000000	0,007866
531,000000	0,007937
530,000000	0,007813
529,000000	0,008091
528,000000	0,008012
527,000000	0,008261
526,000000	0,008019
525,000000	0,008568
524,000000	0,008174
523,000000	0,008095
522,000000	0,008316
521,000000	0,008434
520,000000	0,008173
519,000000	0,008641
518,000000	0,008624
517,000000	0,008456
516,000000	0,008481
515,000000	0,008545
514,000000	0,008626
513,000000	0,008369
512,000000	0,008774
511,000000	0,008772
510,000000	0,008760
509,000000	0,008708
508,000000	0,008783
507,000000	0,008907
506,000000	0,008709
505,000000	0,008917
504,000000	0,009064
503,000000	0,009246
502,000000	0,009016
501,000000	0,009175
500,000000	0,008945
499,000000	0,009054
498,000000	0,009088
497,000000	0,009309
496,000000	0,009362
495,000000	0,009405
494,000000	0,009558
493,000000	0,009538
492,000000	0,009307
491,000000	0,009906
490,000000	0,009882
489,000000	0,009495
488,000000	0,009448
487,000000	0,009795
486,000000	0,009765
485,000000	0,009716
484,000000	0,010164
483,000000	0,009922
482,000000	0,009640
481,000000	0,009699
480,000000	0,010267
479,000000	0,010332
478,000000	0,010009
477,000000	0,010214
476,000000	0,010540
475,000000	0,010272
474,000000	0,010338
473,000000	0,010452
472,000000	0,010386
471,000000	0,010496
470,000000	0,010533
469,000000	0,010872
468,000000	0,010379
467,000000	0,010574
466,000000	0,010921
465,000000	0,010724
464,000000	0,011011
463,000000	0,010890
462,000000	0,011121
461,000000	0,011015
460,000000	0,011044
459,000000	0,011313
458,000000	0,011054
457,000000	0,010947
456,000000	0,011479
455,000000	0,011351
454,000000	0,011434
453,000000	0,011177
452,000000	0,011606
451,000000	0,011637
450,000000	0,012102
449,000000	0,011670
448,000000	0,012050
447,000000	0,012054
446,000000	0,012155
445,000000	0,011901
444,000000	0,011940
443,000000	0,012281
442,000000	0,012841
441,000000	0,012578
440,000000	0,013066
439,000000	0,012946
438,000000	0,012924
437,000000	0,012933
436,000000	0,013212
435,000000	0,013961
434,000000	0,013666
433,000000	0,013796
432,000000	0,014277
431,000000	0,014455
430,000000	0,014541
429,000000	0,015003
428,000000	0,014813
427,000000	0,015241
426,000000	0,015363
425,000000	0,015807
424,000000	0,015822
423,000000	0,015931
422,000000	0,016471
421,000000	0,015663
420,000000	0,016124
419,000000	0,016361
418,000000	0,016470
417,000000	0,016310
416,000000	0,016295
415,000000	0,016913
414,000000	0,016927
413,000000	0,016614
412,000000	0,017131
411,000000	0,017031
410,000000	0,017122
409,000000	0,017141
408,000000	0,017427
407,000000	0,017172
406,000000	0,017613
405,000000	0,017780
404,000000	0,017830
403,000000	0,017671
402,000000	0,017743
401,000000	0,018045
400,000000	0,017870
399,000000	0,017984
398,000000	0,017846
397,000000	0,017815
396,000000	0,018122
395,000000	0,018554
394,000000	0,018076
393,000000	0,018430
392,000000	0,018089
391,000000	0,018119
390,000000	0,018281
