PE UV       SUBTECH     SPECTRUM    ASCII       PEDS        4.00        
   -1
37.Sample.Raw.asc
20/11/02
13:33:59.00
20/11/02
13:33:59.00
Analyst

390,000000
1
Lambda 25
501s11081509
PerkinElmer UV WinLab 6.0.3.0730 / Lambda25 1.27

480
2
1
0
0
Both on
1
1
1
None
0
0
0
0
 
 
0
0
0
0
0
 
 
 
0
 
0
326
0
 
0
 
 
 
0
0
0
 
0
 
 
 
0
 
 
0
0
0
0
0
 
 
 
 
0
0


#HDR
-1
-1
#GR
nm
A
1.0
0.0
700,000000
-1,000000
311
8
1,376485
0,027646
#DATA
700,000000	0,027646
699,000000	0,027815
698,000000	0,027661
697,000000	0,027960
696,000000	0,028058
695,000000	0,028110
694,000000	0,028067
693,000000	0,028178
692,000000	0,028279
691,000000	0,028365
690,000000	0,028394
689,000000	0,028404
688,000000	0,028658
687,000000	0,028481
686,000000	0,028827
685,000000	0,028899
684,000000	0,028853
683,000000	0,028800
682,000000	0,029297
681,000000	0,029120
680,000000	0,028927
679,000000	0,029194
678,000000	0,029413
677,000000	0,029470
676,000000	0,029578
675,000000	0,029839
674,000000	0,029519
673,000000	0,029717
672,000000	0,029511
671,000000	0,029702
670,000000	0,029807
669,000000	0,029723
668,000000	0,030078
667,000000	0,029941
666,000000	0,030183
665,000000	0,030413
664,000000	0,029961
663,000000	0,030711
662,000000	0,030351
661,000000	0,030567
660,000000	0,030639
659,000000	0,030715
658,000000	0,030648
657,000000	0,030916
656,000000	0,031014
655,000000	0,031010
654,000000	0,030846
653,000000	0,031102
652,000000	0,031192
651,000000	0,031200
650,000000	0,031013
649,000000	0,031674
648,000000	0,031732
647,000000	0,031663
646,000000	0,031514
645,000000	0,032016
644,000000	0,031987
643,000000	0,031891
642,000000	0,031858
641,000000	0,032111
640,000000	0,031808
639,000000	0,032278
638,000000	0,032310
637,000000	0,032363
636,000000	0,032561
635,000000	0,032875
634,000000	0,032954
633,000000	0,032400
632,000000	0,032742
631,000000	0,033109
630,000000	0,032769
629,000000	0,032945
628,000000	0,033249
627,000000	0,033226
626,000000	0,033309
625,000000	0,033299
624,000000	0,033386
623,000000	0,033476
622,000000	0,033767
621,000000	0,033751
620,000000	0,033834
619,000000	0,033754
618,000000	0,033676
617,000000	0,034036
616,000000	0,034264
615,000000	0,034065
614,000000	0,034449
613,000000	0,034738
612,000000	0,034407
611,000000	0,034761
610,000000	0,035251
609,000000	0,034961
608,000000	0,034762
607,000000	0,035397
606,000000	0,035221
605,000000	0,035153
604,000000	0,035483
603,000000	0,035654
602,000000	0,035668
601,000000	0,035610
600,000000	0,036125
599,000000	0,036506
598,000000	0,035661
597,000000	0,035917
596,000000	0,036568
595,000000	0,036521
594,000000	0,036436
593,000000	0,036565
592,000000	0,036700
591,000000	0,036653
590,000000	0,036567
589,000000	0,036790
588,000000	0,036874
587,000000	0,036959
586,000000	0,037320
585,000000	0,037201
584,000000	0,037143
583,000000	0,037388
582,000000	0,037785
581,000000	0,037633
580,000000	0,037900
579,000000	0,037694
578,000000	0,038113
577,000000	0,037798
576,000000	0,038190
575,000000	0,038340
574,000000	0,038509
573,000000	0,038386
572,000000	0,038516
571,000000	0,039245
570,000000	0,038724
569,000000	0,038996
568,000000	0,039155
567,000000	0,039323
566,000000	0,039405
565,000000	0,039420
564,000000	0,039918
563,000000	0,039644
562,000000	0,040108
561,000000	0,039771
560,000000	0,040524
559,000000	0,040189
558,000000	0,040741
557,000000	0,040589
556,000000	0,040814
555,000000	0,041039
554,000000	0,041166
553,000000	0,041223
552,000000	0,041257
551,000000	0,041786
550,000000	0,041664
549,000000	0,041969
548,000000	0,041792
547,000000	0,042333
546,000000	0,042282
545,000000	0,042259
544,000000	0,042712
543,000000	0,042683
542,000000	0,042896
541,000000	0,042845
540,000000	0,043114
539,000000	0,043048
538,000000	0,043412
537,000000	0,043363
536,000000	0,043876
535,000000	0,044033
534,000000	0,043886
533,000000	0,044242
532,000000	0,044325
531,000000	0,044362
530,000000	0,044292
529,000000	0,044723
528,000000	0,045162
527,000000	0,045025
526,000000	0,045125
525,000000	0,045558
524,000000	0,045383
523,000000	0,045391
522,000000	0,045741
521,000000	0,046077
520,000000	0,046066
519,000000	0,046345
518,000000	0,046516
517,000000	0,046545
516,000000	0,046683
515,000000	0,047117
514,000000	0,047352
513,000000	0,047275
512,000000	0,047695
511,000000	0,047700
510,000000	0,047714
509,000000	0,048117
508,000000	0,048037
507,000000	0,048498
506,000000	0,048343
505,000000	0,048646
504,000000	0,049315
503,000000	0,049356
502,000000	0,049146
501,000000	0,049375
500,000000	0,049775
499,000000	0,049454
498,000000	0,049749
497,000000	0,050138
496,000000	0,050667
495,000000	0,050678
494,000000	0,051268
493,000000	0,051165
492,000000	0,051306
491,000000	0,051557
490,000000	0,051842
489,000000	0,051668
488,000000	0,051800
487,000000	0,052307
486,000000	0,052775
485,000000	0,052670
484,000000	0,053049
483,000000	0,053310
482,000000	0,053102
481,000000	0,053476
480,000000	0,053964
479,000000	0,054502
478,000000	0,054330
477,000000	0,054840
476,000000	0,055564
475,000000	0,055419
474,000000	0,055602
473,000000	0,055772
472,000000	0,055973
471,000000	0,056340
470,000000	0,056891
469,000000	0,057224
468,000000	0,057164
467,000000	0,057821
466,000000	0,058047
465,000000	0,058287
464,000000	0,058696
463,000000	0,059068
462,000000	0,059640
461,000000	0,059927
460,000000	0,060108
459,000000	0,060574
458,000000	0,061184
457,000000	0,061423
456,000000	0,062638
455,000000	0,062871
454,000000	0,062960
453,000000	0,063951
452,000000	0,064681
451,000000	0,065486
450,000000	0,066936
449,000000	0,067218
448,000000	0,068004
447,000000	0,069363
446,000000	0,069803
445,000000	0,071206
444,000000	0,072514
443,000000	0,074126
442,000000	0,076265
441,000000	0,077918
440,000000	0,080223
439,000000	0,083288
438,000000	0,086304
437,000000	0,090198
436,000000	0,094951
435,000000	0,100551
434,000000	0,106741
433,000000	0,114659
432,000000	0,124188
431,000000	0,135243
430,000000	0,149689
429,000000	0,165948
428,000000	0,184155
427,000000	0,203804
426,000000	0,227375
425,000000	0,250855
424,000000	0,279464
423,000000	0,312589
422,000000	0,349697
421,000000	0,385013
420,000000	0,426435
419,000000	0,473945
418,000000	0,525137
417,000000	0,573593
416,000000	0,627721
415,000000	0,687472
414,000000	0,751552
413,000000	0,816591
412,000000	0,883925
411,000000	0,952653
410,000000	1,018479
409,000000	1,082626
408,000000	1,141590
407,000000	1,197241
406,000000	1,246334
405,000000	1,284380
404,000000	1,311999
403,000000	1,335863
402,000000	1,352042
401,000000	1,366682
400,000000	1,374124
399,000000	1,376485
398,000000	1,374761
397,000000	1,375475
396,000000	1,372245
395,000000	1,372315
394,000000	1,370870
393,000000	1,368024
392,000000	1,364739
391,000000	1,358403
390,000000	1,359530
