PE UV       SUBTECH     SPECTRUM    ASCII       PEDS        4.00        
   -1
38.Sample.Raw.asc
20/11/02
14:02:17.00
20/11/02
14:02:17.00
Analyst

390,000000
1
Lambda 25
501s11081509
PerkinElmer UV WinLab 6.0.3.0730 / Lambda25 1.27

480
2
1
0
0
Both on
1
1
1
None
0
0
0
0
 
 
0
0
0
0
0
 
 
 
0
 
0
326
0
 
0
 
 
 
0
0
0
 
0
 
 
 
0
 
 
0
0
0
0
0
 
 
 
 
0
0


#HDR
-1
-1
#GR
nm
A
1.0
0.0
700,000000
-1,000000
311
8
0,011423
-0,001184
#DATA
700,000000	-0,000851
699,000000	-0,000802
698,000000	-0,000860
697,000000	-0,000901
696,000000	-0,000754
695,000000	-0,000537
694,000000	-0,000717
693,000000	-0,000849
692,000000	-0,000779
691,000000	-0,000788
690,000000	-0,000575
689,000000	-0,000673
688,000000	-0,000739
687,000000	-0,000764
686,000000	-0,000731
685,000000	-0,000900
684,000000	-0,000752
683,000000	-0,000708
682,000000	-0,000819
681,000000	-0,000572
680,000000	-0,000931
679,000000	-0,000733
678,000000	-0,000853
677,000000	-0,000812
676,000000	-0,000387
675,000000	-0,000528
674,000000	-0,001184
673,000000	-0,000767
672,000000	-0,000953
671,000000	-0,000883
670,000000	-0,000958
669,000000	-0,000549
668,000000	-0,000801
667,000000	-0,001033
666,000000	-0,000926
665,000000	-0,000533
664,000000	-0,001033
663,000000	-0,000554
662,000000	-0,000409
661,000000	-0,000707
660,000000	-0,000819
659,000000	-0,000699
658,000000	-0,000530
657,000000	-0,000662
656,000000	-0,000732
655,000000	-0,000575
654,000000	-0,000472
653,000000	-0,000923
652,000000	-0,000563
651,000000	-0,000472
650,000000	-0,000696
649,000000	-0,000700
648,000000	-0,000501
647,000000	-0,000568
646,000000	-0,000738
645,000000	-0,000526
644,000000	-0,000605
643,000000	-0,000730
642,000000	-0,000564
641,000000	-0,000286
640,000000	-0,000510
639,000000	-0,000432
638,000000	-0,000436
637,000000	-0,000523
636,000000	-0,000386
635,000000	-0,000486
634,000000	-0,000332
633,000000	-0,000490
632,000000	-0,000656
631,000000	-0,000457
630,000000	-0,000407
629,000000	-0,000515
628,000000	-0,000328
627,000000	-0,000606
626,000000	-0,000474
625,000000	-0,000324
624,000000	-0,000552
623,000000	-0,000411
622,000000	-0,000158
621,000000	-0,000390
620,000000	-0,000307
619,000000	-0,000370
618,000000	-0,000366
617,000000	-0,000332
616,000000	-0,000461
615,000000	-0,000615
614,000000	-0,000220
613,000000	-0,000208
612,000000	-0,000266
611,000000	-0,000466
610,000000	0,000054
609,000000	-0,000441
608,000000	-0,000353
607,000000	-0,000216
606,000000	-0,000391
605,000000	-0,000121
604,000000	-0,000121
603,000000	-0,000104
602,000000	-0,000050
601,000000	-0,000374
600,000000	0,000353
599,000000	0,000266
598,000000	-0,000353
597,000000	-0,000299
596,000000	0,000237
595,000000	-0,000083
594,000000	-0,000079
593,000000	-0,000170
592,000000	-0,000058
591,000000	-0,000237
590,000000	-0,000246
589,000000	0,000050
588,000000	-0,000171
587,000000	-0,000221
586,000000	0,000013
585,000000	-0,000276
584,000000	-0,000427
583,000000	-0,000289
582,000000	0,000063
581,000000	-0,000050
580,000000	-0,000004
579,000000	-0,000038
578,000000	0,000004
577,000000	-0,000114
576,000000	0,000046
575,000000	-0,000004
574,000000	0,000351
573,000000	-0,000004
572,000000	0,000025
571,000000	0,000228
570,000000	0,000487
569,000000	0,000428
568,000000	0,000411
567,000000	0,000131
566,000000	0,000364
565,000000	0,000220
564,000000	0,000114
563,000000	0,000114
562,000000	0,000661
561,000000	0,000114
560,000000	0,000585
559,000000	0,000097
558,000000	0,000390
557,000000	0,000165
556,000000	0,000432
555,000000	0,000830
554,000000	0,000000
553,000000	0,000462
552,000000	0,000564
551,000000	0,000517
550,000000	0,000432
549,000000	0,000932
548,000000	0,000699
547,000000	0,000682
546,000000	0,000440
545,000000	0,000805
544,000000	0,000622
543,000000	0,000589
542,000000	0,000847
541,000000	0,001206
540,000000	0,000546
539,000000	0,000614
538,000000	0,001024
537,000000	0,000737
536,000000	0,000821
535,000000	0,001367
534,000000	0,001308
533,000000	0,000986
532,000000	0,000897
531,000000	0,001210
530,000000	0,000842
529,000000	0,000817
528,000000	0,001033
527,000000	0,001350
526,000000	0,000974
525,000000	0,001248
524,000000	0,001541
523,000000	0,001300
522,000000	0,001045
521,000000	0,001324
520,000000	0,001253
519,000000	0,001278
518,000000	0,001273
517,000000	0,001274
516,000000	0,001447
515,000000	0,001261
514,000000	0,001387
513,000000	0,001620
512,000000	0,001509
511,000000	0,001183
510,000000	0,001331
509,000000	0,001635
508,000000	0,001526
507,000000	0,001258
506,000000	0,001436
505,000000	0,001630
504,000000	0,001570
503,000000	0,001646
502,000000	0,001224
501,000000	0,001528
500,000000	0,001519
499,000000	0,001371
498,000000	0,001776
497,000000	0,001586
496,000000	0,001767
495,000000	0,001703
494,000000	0,002057
493,000000	0,001736
492,000000	0,001682
491,000000	0,002136
490,000000	0,001790
489,000000	0,001824
488,000000	0,001812
487,000000	0,002102
486,000000	0,002017
485,000000	0,001828
484,000000	0,002329
483,000000	0,002596
482,000000	0,002000
481,000000	0,002216
480,000000	0,002454
479,000000	0,002264
478,000000	0,002147
477,000000	0,002493
476,000000	0,002589
475,000000	0,002451
474,000000	0,002776
473,000000	0,002628
472,000000	0,002710
471,000000	0,002659
470,000000	0,002926
469,000000	0,002927
468,000000	0,002770
467,000000	0,002804
466,000000	0,003139
465,000000	0,002906
464,000000	0,002735
463,000000	0,002848
462,000000	0,003239
461,000000	0,003008
460,000000	0,002950
459,000000	0,003202
458,000000	0,003098
457,000000	0,002933
456,000000	0,003730
455,000000	0,003496
454,000000	0,003455
453,000000	0,003595
452,000000	0,003366
451,000000	0,003665
450,000000	0,004256
449,000000	0,003965
448,000000	0,003528
447,000000	0,003880
446,000000	0,003924
445,000000	0,003918
444,000000	0,004088
443,000000	0,004278
442,000000	0,004562
441,000000	0,004128
440,000000	0,004396
439,000000	0,004653
438,000000	0,004617
437,000000	0,004195
436,000000	0,004536
435,000000	0,004843
434,000000	0,004820
433,000000	0,004643
432,000000	0,004795
431,000000	0,005096
430,000000	0,005292
429,000000	0,005570
428,000000	0,005968
427,000000	0,005380
426,000000	0,005943
425,000000	0,006048
424,000000	0,005605
423,000000	0,005133
422,000000	0,006032
421,000000	0,006146
420,000000	0,006227
419,000000	0,006693
418,000000	0,006922
417,000000	0,006607
416,000000	0,006784
415,000000	0,007359
414,000000	0,007390
413,000000	0,007060
412,000000	0,007307
411,000000	0,007389
410,000000	0,007640
409,000000	0,007634
408,000000	0,007819
407,000000	0,007992
406,000000	0,008304
405,000000	0,008499
404,000000	0,008489
403,000000	0,008656
402,000000	0,008692
401,000000	0,008985
400,000000	0,009333
399,000000	0,009571
398,000000	0,009748
397,000000	0,009887
396,000000	0,009941
395,000000	0,010343
394,000000	0,010083
393,000000	0,010735
392,000000	0,010899
391,000000	0,011211
390,000000	0,011423
