PE UV       SUBTECH     SPECTRUM    ASCII       PEDS        4.00        
   -1
44.Sample.Raw.asc
20/11/02
13:36:13.00
20/11/02
13:36:13.00
Analyst

390,000000
1
Lambda 25
501s11081509
PerkinElmer UV WinLab 6.0.3.0730 / Lambda25 1.27

480
2
1
0
0
Both on
1
1
1
None
0
0
0
0
 
 
0
0
0
0
0
 
 
 
0
 
0
326
0
 
0
 
 
 
0
0
0
 
0
 
 
 
0
 
 
0
0
0
0
0
 
 
 
 
0
0


#HDR
-1
-1
#GR
nm
A
1.0
0.0
700,000000
-1,000000
311
8
0,010816
-0,000029
#DATA
700,000000	0,000303
699,000000	0,000078
698,000000	-0,000004
697,000000	0,000152
696,000000	0,000344
695,000000	-0,000016
694,000000	0,000271
693,000000	0,000316
692,000000	0,000090
691,000000	0,000103
690,000000	0,000292
689,000000	0,000156
688,000000	0,000012
687,000000	0,000202
686,000000	0,000370
685,000000	0,000165
684,000000	0,000177
683,000000	0,000585
682,000000	0,000565
681,000000	0,000425
680,000000	0,000577
679,000000	0,000677
678,000000	0,000499
677,000000	0,000677
676,000000	0,000788
675,000000	0,000747
674,000000	0,000273
673,000000	0,000607
672,000000	0,000376
671,000000	0,000194
670,000000	0,000409
669,000000	0,000451
668,000000	0,000343
667,000000	0,000376
666,000000	0,000120
665,000000	0,000604
664,000000	-0,000029
663,000000	0,000501
662,000000	0,000476
661,000000	0,000311
660,000000	0,000137
659,000000	0,000733
658,000000	0,000460
657,000000	0,000501
656,000000	0,000435
655,000000	0,000381
654,000000	0,000526
653,000000	-0,000008
652,000000	0,000564
651,000000	0,000551
650,000000	0,000535
649,000000	0,000656
648,000000	0,000946
647,000000	0,000681
646,000000	0,000257
645,000000	0,000598
644,000000	0,000885
643,000000	0,000644
642,000000	0,000631
641,000000	0,001038
640,000000	0,000345
639,000000	0,000569
638,000000	0,000640
637,000000	0,000657
636,000000	0,000636
635,000000	0,000910
634,000000	0,001010
633,000000	0,000873
632,000000	0,000491
631,000000	0,000773
630,000000	0,000798
629,000000	0,000470
628,000000	0,000628
627,000000	0,000682
626,000000	0,000720
625,000000	0,000674
624,000000	0,000720
623,000000	0,000944
622,000000	0,000836
621,000000	0,000724
620,000000	0,000665
619,000000	0,000836
618,000000	0,000770
617,000000	0,000832
616,000000	0,000982
615,000000	0,000849
614,000000	0,000741
613,000000	0,000970
612,000000	0,001049
611,000000	0,000645
610,000000	0,001003
609,000000	0,001045
608,000000	0,000974
607,000000	0,000832
606,000000	0,000799
605,000000	0,000974
604,000000	0,000845
603,000000	0,001132
602,000000	0,001086
601,000000	0,001061
600,000000	0,001140
599,000000	0,001156
598,000000	0,000762
597,000000	0,000849
596,000000	0,001248
595,000000	0,001011
594,000000	0,001223
593,000000	0,001082
592,000000	0,000982
591,000000	0,000941
590,000000	0,000683
589,000000	0,000988
588,000000	0,001018
587,000000	0,001174
586,000000	0,000823
585,000000	0,000761
584,000000	0,000838
583,000000	0,000910
582,000000	0,001061
581,000000	0,001260
580,000000	0,001447
579,000000	0,001318
578,000000	0,001024
577,000000	0,001367
576,000000	0,001359
575,000000	0,001247
574,000000	0,001167
573,000000	0,001249
572,000000	0,001211
571,000000	0,001283
570,000000	0,001330
569,000000	0,001415
568,000000	0,001450
567,000000	0,001259
566,000000	0,001530
565,000000	0,001645
564,000000	0,001371
563,000000	0,001426
562,000000	0,001888
561,000000	0,001291
560,000000	0,001788
559,000000	0,001371
558,000000	0,001611
557,000000	0,001213
556,000000	0,001583
555,000000	0,001845
554,000000	0,001418
553,000000	0,001472
552,000000	0,001527
551,000000	0,001730
550,000000	0,001311
549,000000	0,001751
548,000000	0,001768
547,000000	0,001696
546,000000	0,001348
545,000000	0,001806
544,000000	0,001717
543,000000	0,001530
542,000000	0,002082
541,000000	0,001868
540,000000	0,001466
539,000000	0,001692
538,000000	0,002144
537,000000	0,001534
536,000000	0,001767
535,000000	0,002164
534,000000	0,001910
533,000000	0,001682
532,000000	0,001949
531,000000	0,002216
530,000000	0,001623
529,000000	0,001673
528,000000	0,002059
527,000000	0,002191
526,000000	0,001792
525,000000	0,001816
524,000000	0,002259
523,000000	0,002013
522,000000	0,002067
521,000000	0,002122
520,000000	0,002093
519,000000	0,002037
518,000000	0,001888
517,000000	0,002067
516,000000	0,002024
515,000000	0,001735
514,000000	0,002184
513,000000	0,002392
512,000000	0,002412
511,000000	0,002263
510,000000	0,002038
509,000000	0,002220
508,000000	0,001830
507,000000	0,002346
506,000000	0,002189
505,000000	0,002202
504,000000	0,002298
503,000000	0,002352
502,000000	0,002261
501,000000	0,002035
500,000000	0,002314
499,000000	0,002205
498,000000	0,002551
497,000000	0,002516
496,000000	0,002528
495,000000	0,002790
494,000000	0,002780
493,000000	0,002497
492,000000	0,002434
491,000000	0,002944
490,000000	0,002318
489,000000	0,002597
488,000000	0,002336
487,000000	0,002621
486,000000	0,002537
485,000000	0,002825
484,000000	0,003001
483,000000	0,002718
482,000000	0,002528
481,000000	0,002782
480,000000	0,003012
479,000000	0,003037
478,000000	0,002700
477,000000	0,002945
476,000000	0,002897
475,000000	0,003136
474,000000	0,003338
473,000000	0,003064
472,000000	0,003001
471,000000	0,003074
470,000000	0,003505
469,000000	0,003330
468,000000	0,002994
467,000000	0,003609
466,000000	0,003360
465,000000	0,003084
464,000000	0,003733
463,000000	0,003523
462,000000	0,003685
461,000000	0,003476
460,000000	0,003797
459,000000	0,003623
458,000000	0,003281
457,000000	0,003432
456,000000	0,004315
455,000000	0,003931
454,000000	0,003660
453,000000	0,004005
452,000000	0,003712
451,000000	0,003951
450,000000	0,004375
449,000000	0,004217
448,000000	0,004388
447,000000	0,004162
446,000000	0,004837
445,000000	0,004497
444,000000	0,004118
443,000000	0,004325
442,000000	0,004892
441,000000	0,004661
440,000000	0,004689
439,000000	0,005036
438,000000	0,005190
437,000000	0,004389
436,000000	0,004959
435,000000	0,005205
434,000000	0,005135
433,000000	0,004980
432,000000	0,005689
431,000000	0,005718
430,000000	0,005279
429,000000	0,005821
428,000000	0,005578
427,000000	0,005575
426,000000	0,006056
425,000000	0,006312
424,000000	0,006138
423,000000	0,006077
422,000000	0,006279
421,000000	0,005786
420,000000	0,006205
419,000000	0,006094
418,000000	0,006614
417,000000	0,006303
416,000000	0,006147
415,000000	0,006647
414,000000	0,006787
413,000000	0,006418
412,000000	0,006678
411,000000	0,007172
410,000000	0,007010
409,000000	0,007304
408,000000	0,007446
407,000000	0,007358
406,000000	0,007770
405,000000	0,007999
404,000000	0,008219
403,000000	0,008217
402,000000	0,008283
401,000000	0,008472
400,000000	0,008802
399,000000	0,008849
398,000000	0,008821
397,000000	0,009399
396,000000	0,009415
395,000000	0,009720
394,000000	0,009869
393,000000	0,010290
392,000000	0,010297
391,000000	0,010343
390,000000	0,010816
