PE UV       SUBTECH     SPECTRUM    ASCII       PEDS        4.00        
   -1
46.Sample.Raw.asc
20/11/02
13:38:08.00
20/11/02
13:38:08.00
Analyst

390,000000
1
Lambda 25
501s11081509
PerkinElmer UV WinLab 6.0.3.0730 / Lambda25 1.27

480
2
1
0
0
Both on
1
1
1
None
0
0
0
0
 
 
0
0
0
0
0
 
 
 
0
 
0
326
0
 
0
 
 
 
0
0
0
 
0
 
 
 
0
 
 
0
0
0
0
0
 
 
 
 
0
0


#HDR
-1
-1
#GR
nm
A
1.0
0.0
700,000000
-1,000000
311
8
0,063661
0,000176
#DATA
700,000000	0,000336
699,000000	0,000238
698,000000	0,000176
697,000000	0,000287
696,000000	0,000443
695,000000	0,000337
694,000000	0,000226
693,000000	0,000267
692,000000	0,000296
691,000000	0,000353
690,000000	0,000288
689,000000	0,000325
688,000000	0,000506
687,000000	0,000473
686,000000	0,000378
685,000000	0,000374
684,000000	0,000366
683,000000	0,000395
682,000000	0,000684
681,000000	0,000474
680,000000	0,000412
679,000000	0,000635
678,000000	0,000537
677,000000	0,000731
676,000000	0,000718
675,000000	0,000636
674,000000	0,000608
673,000000	0,000694
672,000000	0,000335
671,000000	0,000434
670,000000	0,000389
669,000000	0,000571
668,000000	0,000397
667,000000	0,000484
666,000000	0,000675
665,000000	0,000678
664,000000	0,000410
663,000000	0,000869
662,000000	0,000882
661,000000	0,000601
660,000000	0,000738
659,000000	0,000804
658,000000	0,000630
657,000000	0,000497
656,000000	0,000945
655,000000	0,000593
654,000000	0,000775
653,000000	0,000859
652,000000	0,000987
651,000000	0,000850
650,000000	0,000838
649,000000	0,001133
648,000000	0,000909
647,000000	0,000847
646,000000	0,000798
645,000000	0,001026
644,000000	0,000918
643,000000	0,000652
642,000000	0,001156
641,000000	0,001288
640,000000	0,000798
639,000000	0,001093
638,000000	0,001127
637,000000	0,001190
636,000000	0,001206
635,000000	0,001497
634,000000	0,001247
633,000000	0,001090
632,000000	0,000873
631,000000	0,001414
630,000000	0,001140
629,000000	0,001049
628,000000	0,001332
627,000000	0,001128
626,000000	0,001220
625,000000	0,001120
624,000000	0,001224
623,000000	0,001290
622,000000	0,001290
621,000000	0,001561
620,000000	0,001403
619,000000	0,001428
618,000000	0,001474
617,000000	0,001557
616,000000	0,001403
615,000000	0,001174
614,000000	0,001533
613,000000	0,001728
612,000000	0,001458
611,000000	0,001442
610,000000	0,001954
609,000000	0,001675
608,000000	0,001421
607,000000	0,001779
606,000000	0,001892
605,000000	0,001646
604,000000	0,001562
603,000000	0,002049
602,000000	0,001945
601,000000	0,001808
600,000000	0,002282
599,000000	0,002282
598,000000	0,001721
597,000000	0,002008
596,000000	0,002028
595,000000	0,002128
594,000000	0,002179
593,000000	0,002250
592,000000	0,002189
591,000000	0,002144
590,000000	0,002053
589,000000	0,002159
588,000000	0,002077
587,000000	0,002078
586,000000	0,002370
585,000000	0,002401
584,000000	0,002261
583,000000	0,002305
582,000000	0,002690
581,000000	0,002765
580,000000	0,002666
579,000000	0,002670
578,000000	0,002665
577,000000	0,002718
576,000000	0,002850
575,000000	0,002957
574,000000	0,003243
573,000000	0,003161
572,000000	0,003021
571,000000	0,003412
570,000000	0,003325
569,000000	0,003321
568,000000	0,003356
567,000000	0,003626
566,000000	0,003638
565,000000	0,003758
564,000000	0,003629
563,000000	0,003809
562,000000	0,003933
561,000000	0,003417
560,000000	0,003882
559,000000	0,004014
558,000000	0,004065
557,000000	0,003992
556,000000	0,004170
555,000000	0,004322
554,000000	0,004095
553,000000	0,004389
552,000000	0,004483
551,000000	0,004791
550,000000	0,004859
549,000000	0,004834
548,000000	0,004851
547,000000	0,004970
546,000000	0,004924
545,000000	0,004928
544,000000	0,005209
543,000000	0,005498
542,000000	0,005400
541,000000	0,005745
540,000000	0,005879
539,000000	0,005511
538,000000	0,006100
537,000000	0,005748
536,000000	0,006170
535,000000	0,006456
534,000000	0,006492
533,000000	0,006384
532,000000	0,007010
531,000000	0,006802
530,000000	0,006815
529,000000	0,007192
528,000000	0,007354
527,000000	0,007310
526,000000	0,007451
525,000000	0,008056
524,000000	0,007826
523,000000	0,007837
522,000000	0,008523
521,000000	0,008662
520,000000	0,008401
519,000000	0,008577
518,000000	0,009215
517,000000	0,009163
516,000000	0,009425
515,000000	0,009822
514,000000	0,010006
513,000000	0,010042
512,000000	0,010474
511,000000	0,010757
510,000000	0,010883
509,000000	0,010731
508,000000	0,011282
507,000000	0,011635
506,000000	0,011505
505,000000	0,011810
504,000000	0,012228
503,000000	0,012485
502,000000	0,012680
501,000000	0,012826
500,000000	0,013327
499,000000	0,013442
498,000000	0,014026
497,000000	0,014627
496,000000	0,015140
495,000000	0,015032
494,000000	0,015880
493,000000	0,015870
492,000000	0,016299
491,000000	0,016714
490,000000	0,016945
489,000000	0,017321
488,000000	0,017747
487,000000	0,017933
486,000000	0,018603
485,000000	0,018612
484,000000	0,019319
483,000000	0,019781
482,000000	0,020066
481,000000	0,020328
480,000000	0,021131
479,000000	0,021418
478,000000	0,021634
477,000000	0,022253
476,000000	0,023095
475,000000	0,022815
474,000000	0,023851
473,000000	0,024023
472,000000	0,024484
471,000000	0,024681
470,000000	0,025193
469,000000	0,025505
468,000000	0,025890
467,000000	0,026258
466,000000	0,026935
465,000000	0,027052
464,000000	0,027818
463,000000	0,028010
462,000000	0,028984
461,000000	0,028773
460,000000	0,029261
459,000000	0,029634
458,000000	0,029810
457,000000	0,030216
456,000000	0,031302
455,000000	0,031357
454,000000	0,031690
453,000000	0,031823
452,000000	0,032340
451,000000	0,033181
450,000000	0,033923
449,000000	0,033742
448,000000	0,034426
447,000000	0,034745
446,000000	0,035008
445,000000	0,035378
444,000000	0,035643
443,000000	0,036081
442,000000	0,036715
441,000000	0,036920
440,000000	0,037517
439,000000	0,037766
438,000000	0,038405
437,000000	0,038540
436,000000	0,039203
435,000000	0,039418
434,000000	0,039579
433,000000	0,040033
432,000000	0,040786
431,000000	0,040998
430,000000	0,041118
429,000000	0,042443
428,000000	0,042343
427,000000	0,042660
426,000000	0,043618
425,000000	0,044017
424,000000	0,044441
423,000000	0,044686
422,000000	0,045088
421,000000	0,045023
420,000000	0,045485
419,000000	0,045835
418,000000	0,046358
417,000000	0,046620
416,000000	0,047078
415,000000	0,048076
414,000000	0,048204
413,000000	0,048555
412,000000	0,049079
411,000000	0,049300
410,000000	0,049924
409,000000	0,050674
408,000000	0,051050
407,000000	0,051786
406,000000	0,052504
405,000000	0,053173
404,000000	0,053740
403,000000	0,054071
402,000000	0,054754
401,000000	0,055409
400,000000	0,055915
399,000000	0,056862
398,000000	0,057529
397,000000	0,058239
396,000000	0,059001
395,000000	0,059947
394,000000	0,059964
393,000000	0,061498
392,000000	0,061923
391,000000	0,063045
390,000000	0,063661
