PE UV       SUBTECH     SPECTRUM    ASCII       PEDS        4.00        
   -1
49.Sample.Raw.asc
20/11/02
13:40:15.00
20/11/02
13:40:15.00
Analyst

390,000000
1
Lambda 25
501s11081509
PerkinElmer UV WinLab 6.0.3.0730 / Lambda25 1.27

480
2
1
0
0
Both on
1
1
1
None
0
0
0
0
 
 
0
0
0
0
0
 
 
 
0
 
0
326
0
 
0
 
 
 
0
0
0
 
0
 
 
 
0
 
 
0
0
0
0
0
 
 
 
 
0
0


#HDR
-1
-1
#GR
nm
A
1.0
0.0
700,000000
-1,000000
311
8
1,354499
0,002045
#DATA
700,000000	0,002180
699,000000	0,002235
698,000000	0,002277
697,000000	0,002401
696,000000	0,002611
695,000000	0,002275
694,000000	0,002287
693,000000	0,002379
692,000000	0,002268
691,000000	0,002182
690,000000	0,002260
689,000000	0,002418
688,000000	0,002340
687,000000	0,002309
686,000000	0,002598
685,000000	0,002376
684,000000	0,002257
683,000000	0,002569
682,000000	0,002797
681,000000	0,002194
680,000000	0,002314
679,000000	0,002650
678,000000	0,002229
677,000000	0,002643
676,000000	0,002908
675,000000	0,002610
674,000000	0,002082
673,000000	0,002397
672,000000	0,002195
671,000000	0,002224
670,000000	0,002246
669,000000	0,002657
668,000000	0,002404
667,000000	0,002281
666,000000	0,002310
665,000000	0,002662
664,000000	0,002045
663,000000	0,002372
662,000000	0,002551
661,000000	0,002399
660,000000	0,002187
659,000000	0,002678
658,000000	0,002571
657,000000	0,002538
656,000000	0,002471
655,000000	0,002522
654,000000	0,002601
653,000000	0,002198
652,000000	0,002664
651,000000	0,002685
650,000000	0,002544
649,000000	0,002399
648,000000	0,002632
647,000000	0,002562
646,000000	0,002201
645,000000	0,002705
644,000000	0,002855
643,000000	0,002439
642,000000	0,002606
641,000000	0,002684
640,000000	0,002637
639,000000	0,002569
638,000000	0,002641
637,000000	0,002562
636,000000	0,002596
635,000000	0,002837
634,000000	0,002970
633,000000	0,002629
632,000000	0,002467
631,000000	0,002737
630,000000	0,002517
629,000000	0,002522
628,000000	0,002517
627,000000	0,002823
626,000000	0,002861
625,000000	0,002451
624,000000	0,002890
623,000000	0,002894
622,000000	0,002810
621,000000	0,002438
620,000000	0,002965
619,000000	0,002798
618,000000	0,002899
617,000000	0,002735
616,000000	0,003108
615,000000	0,002783
614,000000	0,002497
613,000000	0,002982
612,000000	0,002954
611,000000	0,002746
610,000000	0,003107
609,000000	0,002846
608,000000	0,002946
607,000000	0,002958
606,000000	0,003004
605,000000	0,002988
604,000000	0,003129
603,000000	0,002919
602,000000	0,003157
601,000000	0,003091
600,000000	0,003127
599,000000	0,003227
598,000000	0,003167
597,000000	0,002991
596,000000	0,003115
595,000000	0,003282
594,000000	0,003254
593,000000	0,003070
592,000000	0,002967
591,000000	0,003123
590,000000	0,003109
589,000000	0,002955
588,000000	0,003281
587,000000	0,003178
586,000000	0,003294
585,000000	0,002868
584,000000	0,003153
583,000000	0,003223
582,000000	0,003259
581,000000	0,003619
580,000000	0,003609
579,000000	0,003580
578,000000	0,003508
577,000000	0,003376
576,000000	0,003543
575,000000	0,003140
574,000000	0,003430
573,000000	0,003625
572,000000	0,003792
571,000000	0,003727
570,000000	0,003939
569,000000	0,004051
568,000000	0,003915
567,000000	0,003673
566,000000	0,003753
565,000000	0,004227
564,000000	0,003950
563,000000	0,003809
562,000000	0,004689
561,000000	0,003571
560,000000	0,004031
559,000000	0,004125
558,000000	0,004471
557,000000	0,004163
556,000000	0,004423
555,000000	0,004425
554,000000	0,004190
553,000000	0,004308
552,000000	0,004457
551,000000	0,005027
550,000000	0,004324
549,000000	0,004911
548,000000	0,004749
547,000000	0,004649
546,000000	0,004214
545,000000	0,004756
544,000000	0,004798
543,000000	0,004509
542,000000	0,004908
541,000000	0,005205
540,000000	0,005018
539,000000	0,004723
538,000000	0,005201
537,000000	0,005084
536,000000	0,005249
535,000000	0,005352
534,000000	0,005498
533,000000	0,005279
532,000000	0,005231
531,000000	0,005465
530,000000	0,005207
529,000000	0,005519
528,000000	0,005620
527,000000	0,005817
526,000000	0,005554
525,000000	0,005879
524,000000	0,005988
523,000000	0,005831
522,000000	0,005717
521,000000	0,006002
520,000000	0,006180
519,000000	0,006123
518,000000	0,006257
517,000000	0,006221
516,000000	0,006495
515,000000	0,006567
514,000000	0,006547
513,000000	0,006458
512,000000	0,006845
511,000000	0,006821
510,000000	0,006909
509,000000	0,007046
508,000000	0,006725
507,000000	0,006884
506,000000	0,007150
505,000000	0,007294
504,000000	0,007423
503,000000	0,007610
502,000000	0,007405
501,000000	0,007642
500,000000	0,007859
499,000000	0,007817
498,000000	0,007954
497,000000	0,008124
496,000000	0,008297
495,000000	0,008537
494,000000	0,008995
493,000000	0,008907
492,000000	0,008998
491,000000	0,009454
490,000000	0,009413
489,000000	0,009254
488,000000	0,009251
487,000000	0,009825
486,000000	0,009975
485,000000	0,010206
484,000000	0,010642
483,000000	0,011023
482,000000	0,010745
481,000000	0,011033
480,000000	0,011468
479,000000	0,011843
478,000000	0,011758
477,000000	0,012084
476,000000	0,013210
475,000000	0,012920
474,000000	0,013268
473,000000	0,013829
472,000000	0,014081
471,000000	0,014201
470,000000	0,014750
469,000000	0,015065
468,000000	0,015077
467,000000	0,015815
466,000000	0,016583
465,000000	0,016829
464,000000	0,017500
463,000000	0,017816
462,000000	0,018761
461,000000	0,019026
460,000000	0,019580
459,000000	0,020570
458,000000	0,020956
457,000000	0,021811
456,000000	0,023127
455,000000	0,023582
454,000000	0,024264
453,000000	0,025032
452,000000	0,026194
451,000000	0,027389
450,000000	0,028699
449,000000	0,030064
448,000000	0,031290
447,000000	0,033191
446,000000	0,034512
445,000000	0,035977
444,000000	0,038288
443,000000	0,040680
442,000000	0,043575
441,000000	0,046049
440,000000	0,050035
439,000000	0,053465
438,000000	0,058030
437,000000	0,063081
436,000000	0,069344
435,000000	0,076679
434,000000	0,085183
433,000000	0,095877
432,000000	0,107577
431,000000	0,122834
430,000000	0,141196
429,000000	0,162774
428,000000	0,186663
427,000000	0,213800
426,000000	0,245642
425,000000	0,277333
424,000000	0,315851
423,000000	0,359260
422,000000	0,409169
421,000000	0,459779
420,000000	0,518411
419,000000	0,584951
418,000000	0,655387
417,000000	0,718688
416,000000	0,790867
415,000000	0,866630
414,000000	0,942485
413,000000	1,015820
412,000000	1,086792
411,000000	1,151355
410,000000	1,206904
409,000000	1,254377
408,000000	1,289222
407,000000	1,315534
406,000000	1,333651
405,000000	1,346092
404,000000	1,352187
403,000000	1,353592
402,000000	1,353772
401,000000	1,353886
400,000000	1,354499
399,000000	1,351938
398,000000	1,348503
397,000000	1,347763
396,000000	1,345585
395,000000	1,339014
394,000000	1,337843
393,000000	1,333674
392,000000	1,333555
391,000000	1,326746
390,000000	1,324027
