PE UV       SUBTECH     SPECTRUM    ASCII       PEDS        4.00        
   -1
5.Sample.Raw.asc
20/11/02
13:19:49.00
20/11/02
13:19:49.00
Analyst

390,000000
1
Lambda 25
501s11081509
PerkinElmer UV WinLab 6.0.3.0730 / Lambda25 1.27

480
2
1
0
0
Both on
1
1
1
None
0
0
0
0
 
 
0
0
0
0
0
 
 
 
0
 
0
326
0
 
0
 
 
 
0
0
0
 
0
 
 
 
0
 
 
0
0
0
0
0
 
 
 
 
0
0


#HDR
-1
-1
#GR
nm
A
1.0
0.0
700,000000
-1,000000
311
8
1,885272
0,135259
#DATA
700,000000	0,135259
699,000000	0,135656
698,000000	0,135879
697,000000	0,136571
696,000000	0,137344
695,000000	0,137645
694,000000	0,138121
693,000000	0,138876
692,000000	0,139125
691,000000	0,139243
690,000000	0,140189
689,000000	0,140759
688,000000	0,141141
687,000000	0,141482
686,000000	0,142309
685,000000	0,142838
684,000000	0,143262
683,000000	0,144275
682,000000	0,145542
681,000000	0,145909
680,000000	0,146325
679,000000	0,146989
678,000000	0,147547
677,000000	0,148324
676,000000	0,149385
675,000000	0,150011
674,000000	0,149886
673,000000	0,150542
672,000000	0,151243
671,000000	0,151734
670,000000	0,152331
669,000000	0,153055
668,000000	0,154028
667,000000	0,154462
666,000000	0,154979
665,000000	0,156009
664,000000	0,156023
663,000000	0,156810
662,000000	0,157759
661,000000	0,158439
660,000000	0,158822
659,000000	0,159876
658,000000	0,160628
657,000000	0,161043
656,000000	0,161950
655,000000	0,162596
654,000000	0,163195
653,000000	0,163651
652,000000	0,164799
651,000000	0,165628
650,000000	0,166263
649,000000	0,166923
648,000000	0,167704
647,000000	0,168483
646,000000	0,168728
645,000000	0,169865
644,000000	0,170715
643,000000	0,171395
642,000000	0,172186
641,000000	0,173317
640,000000	0,173687
639,000000	0,174554
638,000000	0,175295
637,000000	0,176106
636,000000	0,176875
635,000000	0,177889
634,000000	0,179087
633,000000	0,179283
632,000000	0,179837
631,000000	0,181316
630,000000	0,181838
629,000000	0,182428
628,000000	0,183551
627,000000	0,184329
626,000000	0,185166
625,000000	0,185712
624,000000	0,186369
623,000000	0,187443
622,000000	0,188364
621,000000	0,189135
620,000000	0,189800
619,000000	0,190672
618,000000	0,191264
617,000000	0,192545
616,000000	0,193385
615,000000	0,193910
614,000000	0,194967
613,000000	0,196214
612,000000	0,196721
611,000000	0,197216
610,000000	0,198700
609,000000	0,199273
608,000000	0,200117
607,000000	0,200919
606,000000	0,201929
605,000000	0,202497
604,000000	0,203413
603,000000	0,204620
602,000000	0,205222
601,000000	0,206096
600,000000	0,207294
599,000000	0,208447
598,000000	0,208378
597,000000	0,209332
596,000000	0,210599
595,000000	0,211603
594,000000	0,212145
593,000000	0,213140
592,000000	0,213926
591,000000	0,214925
590,000000	0,215514
589,000000	0,216516
588,000000	0,217302
587,000000	0,217952
586,000000	0,218919
585,000000	0,219913
584,000000	0,220641
583,000000	0,221476
582,000000	0,222497
581,000000	0,223207
580,000000	0,224349
579,000000	0,224768
578,000000	0,225911
577,000000	0,226749
576,000000	0,227826
575,000000	0,228334
574,000000	0,229451
573,000000	0,230246
572,000000	0,231016
571,000000	0,232328
570,000000	0,232772
569,000000	0,233581
568,000000	0,234717
567,000000	0,235212
566,000000	0,235996
565,000000	0,236993
564,000000	0,237671
563,000000	0,238339
562,000000	0,239526
561,000000	0,239961
560,000000	0,240804
559,000000	0,242359
558,000000	0,243970
557,000000	0,244667
556,000000	0,245392
555,000000	0,246092
554,000000	0,246908
553,000000	0,247471
552,000000	0,248295
551,000000	0,249833
550,000000	0,250136
549,000000	0,250797
548,000000	0,251648
547,000000	0,252479
546,000000	0,253400
545,000000	0,253970
544,000000	0,254891
543,000000	0,255443
542,000000	0,256671
541,000000	0,257556
540,000000	0,257826
539,000000	0,258565
538,000000	0,259391
537,000000	0,259353
536,000000	0,260531
535,000000	0,261574
534,000000	0,262306
533,000000	0,262824
532,000000	0,263697
531,000000	0,264419
530,000000	0,264813
529,000000	0,265779
528,000000	0,266196
527,000000	0,267063
526,000000	0,267691
525,000000	0,268675
524,000000	0,268953
523,000000	0,269771
522,000000	0,270493
521,000000	0,271019
520,000000	0,271082
519,000000	0,272284
518,000000	0,272941
517,000000	0,273711
516,000000	0,274403
515,000000	0,274894
514,000000	0,275804
513,000000	0,276314
512,000000	0,277119
511,000000	0,277665
510,000000	0,278148
509,000000	0,278799
508,000000	0,279124
507,000000	0,279778
506,000000	0,280409
505,000000	0,281327
504,000000	0,281868
503,000000	0,282346
502,000000	0,283218
501,000000	0,283893
500,000000	0,284273
499,000000	0,284941
498,000000	0,285574
497,000000	0,286619
496,000000	0,287520
495,000000	0,288320
494,000000	0,289330
493,000000	0,289618
492,000000	0,290385
491,000000	0,291456
490,000000	0,292146
489,000000	0,293111
488,000000	0,294003
487,000000	0,295245
486,000000	0,296412
485,000000	0,297747
484,000000	0,298977
483,000000	0,300337
482,000000	0,301228
481,000000	0,302866
480,000000	0,304922
479,000000	0,306501
478,000000	0,308712
477,000000	0,311179
476,000000	0,313609
475,000000	0,315850
474,000000	0,318824
473,000000	0,322835
472,000000	0,326186
471,000000	0,330379
470,000000	0,335575
469,000000	0,341110
468,000000	0,347131
467,000000	0,354160
466,000000	0,363507
465,000000	0,372870
464,000000	0,384266
463,000000	0,397390
462,000000	0,413334
461,000000	0,430526
460,000000	0,451635
459,000000	0,478641
458,000000	0,509515
457,000000	0,545585
456,000000	0,588896
455,000000	0,631942
454,000000	0,685012
453,000000	0,746069
452,000000	0,820102
451,000000	0,905148
450,000000	1,006307
449,000000	1,128074
448,000000	1,254032
447,000000	1,388243
446,000000	1,512378
445,000000	1,627249
444,000000	1,729330
443,000000	1,796010
442,000000	1,825960
441,000000	1,860787
440,000000	1,860283
439,000000	1,868139
438,000000	1,861622
437,000000	1,856242
436,000000	1,864219
435,000000	1,860445
434,000000	1,871448
433,000000	1,885272
432,000000	1,882302
431,000000	1,861411
430,000000	1,858479
429,000000	1,875664
428,000000	1,870936
427,000000	1,880463
426,000000	1,868929
425,000000	1,882706
424,000000	1,876590
423,000000	1,879870
422,000000	1,874216
421,000000	1,747551
420,000000	1,698641
419,000000	1,690786
418,000000	1,688528
417,000000	1,689479
416,000000	1,689726
415,000000	1,686828
414,000000	1,687833
413,000000	1,683426
412,000000	1,676160
411,000000	1,671560
410,000000	1,673633
409,000000	1,668722
408,000000	1,663839
407,000000	1,667628
406,000000	1,662587
405,000000	1,658528
404,000000	1,657070
403,000000	1,648315
402,000000	1,650013
401,000000	1,646150
400,000000	1,646558
399,000000	1,636141
398,000000	1,634398
397,000000	1,632592
396,000000	1,627598
395,000000	1,618120
394,000000	1,617525
393,000000	1,615152
392,000000	1,608073
391,000000	1,603535
390,000000	1,601911
