PE UV       SUBTECH     SPECTRUM    ASCII       PEDS        4.00        
   -1
6.Sample.Raw.asc
20/11/02
13:46:45.00
20/11/02
13:46:45.00
Analyst

390,000000
1
Lambda 25
501s11081509
PerkinElmer UV WinLab 6.0.3.0730 / Lambda25 1.27

480
2
1
0
0
Both on
1
1
1
None
0
0
0
0
 
 
0
0
0
0
0
 
 
 
0
 
0
326
0
 
0
 
 
 
0
0
0
 
0
 
 
 
0
 
 
0
0
0
0
0
 
 
 
 
0
0


#HDR
-1
-1
#GR
nm
A
1.0
0.0
700,000000
-1,000000
311
8
0,762562
-0,000682
#DATA
700,000000	-0,000327
699,000000	-0,000483
698,000000	-0,000467
697,000000	-0,000623
696,000000	-0,000086
695,000000	-0,000517
694,000000	-0,000595
693,000000	-0,000320
692,000000	-0,000263
691,000000	-0,000554
690,000000	-0,000378
689,000000	-0,000238
688,000000	-0,000378
687,000000	-0,000419
686,000000	-0,000279
685,000000	-0,000165
684,000000	-0,000333
683,000000	-0,000461
682,000000	-0,000165
681,000000	-0,000025
680,000000	-0,000441
679,000000	-0,000227
678,000000	-0,000239
677,000000	-0,000264
676,000000	-0,000396
675,000000	0,000029
674,000000	-0,000396
673,000000	-0,000260
672,000000	-0,000392
671,000000	-0,000202
670,000000	-0,000330
669,000000	-0,000264
668,000000	-0,000302
667,000000	-0,000492
666,000000	-0,000682
665,000000	-0,000269
664,000000	-0,000658
663,000000	-0,000099
662,000000	-0,000455
661,000000	-0,000596
660,000000	-0,000335
659,000000	-0,000285
658,000000	-0,000443
657,000000	-0,000294
656,000000	-0,000149
655,000000	-0,000306
654,000000	-0,000480
653,000000	-0,000348
652,000000	-0,000319
651,000000	-0,000617
650,000000	-0,000352
649,000000	0,000062
648,000000	-0,000087
647,000000	-0,000170
646,000000	-0,000411
645,000000	-0,000033
644,000000	-0,000066
643,000000	-0,000141
642,000000	-0,000245
641,000000	0,000158
640,000000	-0,000328
639,000000	0,000149
638,000000	0,000037
637,000000	-0,000158
636,000000	-0,000199
635,000000	0,000212
634,000000	0,000216
633,000000	-0,000203
632,000000	-0,000150
631,000000	0,000262
630,000000	-0,000150
629,000000	-0,000291
628,000000	0,000058
627,000000	0,000033
626,000000	-0,000096
625,000000	-0,000100
624,000000	-0,000141
623,000000	0,000012
622,000000	-0,000008
621,000000	0,000137
620,000000	-0,000042
619,000000	-0,000050
618,000000	-0,000091
617,000000	-0,000008
616,000000	0,000166
615,000000	0,000092
614,000000	-0,000091
613,000000	0,000353
612,000000	0,000033
611,000000	-0,000241
610,000000	0,000279
609,000000	0,000021
608,000000	-0,000025
607,000000	0,000137
606,000000	0,000220
605,000000	0,000200
604,000000	0,000029
603,000000	0,000428
602,000000	0,000104
601,000000	0,000229
600,000000	0,000578
599,000000	0,000569
598,000000	0,000058
597,000000	-0,000037
596,000000	0,000453
595,000000	0,000436
594,000000	0,000183
593,000000	-0,000012
592,000000	0,000183
591,000000	0,000000
590,000000	0,000100
589,000000	0,000021
588,000000	0,000200
587,000000	0,000271
586,000000	-0,000021
585,000000	-0,000276
584,000000	-0,000021
583,000000	0,000033
582,000000	0,000298
581,000000	0,000248
580,000000	0,000500
579,000000	-0,000025
578,000000	-0,000080
577,000000	0,000341
576,000000	0,000291
575,000000	-0,000017
574,000000	0,000317
573,000000	0,000262
572,000000	0,000173
571,000000	0,000622
570,000000	0,000317
569,000000	0,000432
568,000000	0,000186
567,000000	0,000119
566,000000	0,000364
565,000000	0,000682
564,000000	0,000153
563,000000	0,000271
562,000000	0,000919
561,000000	0,000051
560,000000	0,000458
559,000000	0,000343
558,000000	0,000495
557,000000	0,000042
556,000000	0,000466
555,000000	0,000593
554,000000	0,000144
553,000000	0,000458
552,000000	0,000377
551,000000	0,000542
550,000000	0,000263
549,000000	0,000639
548,000000	0,000682
547,000000	0,000504
546,000000	0,000241
545,000000	0,000474
544,000000	0,000457
543,000000	0,000076
542,000000	0,000525
541,000000	0,000766
540,000000	0,000258
539,000000	0,000174
538,000000	0,000668
537,000000	0,000470
536,000000	0,000516
535,000000	0,000837
534,000000	0,000816
533,000000	0,000571
532,000000	0,000469
531,000000	0,000723
530,000000	0,000512
529,000000	0,000474
528,000000	0,000698
527,000000	0,000800
526,000000	0,000601
525,000000	0,000723
524,000000	0,000812
523,000000	0,000707
522,000000	0,000609
521,000000	0,000858
520,000000	0,000702
519,000000	0,000706
518,000000	0,000765
517,000000	0,000782
516,000000	0,000960
515,000000	0,000736
514,000000	0,001074
513,000000	0,000786
512,000000	0,001103
511,000000	0,000709
510,000000	0,000916
509,000000	0,000857
508,000000	0,000747
507,000000	0,000772
506,000000	0,001081
505,000000	0,000996
504,000000	0,000949
503,000000	0,000953
502,000000	0,000827
501,000000	0,000683
500,000000	0,000721
499,000000	0,000742
498,000000	0,001109
497,000000	0,001037
496,000000	0,001036
495,000000	0,001091
494,000000	0,001145
493,000000	0,000977
492,000000	0,000880
491,000000	0,001195
490,000000	0,001115
489,000000	0,000808
488,000000	0,000930
487,000000	0,001170
486,000000	0,001106
485,000000	0,000871
484,000000	0,001342
483,000000	0,001224
482,000000	0,001026
481,000000	0,000955
480,000000	0,001379
479,000000	0,001240
478,000000	0,001169
477,000000	0,001144
476,000000	0,001589
475,000000	0,001051
474,000000	0,001392
473,000000	0,001451
472,000000	0,001393
471,000000	0,001161
470,000000	0,001502
469,000000	0,001377
468,000000	0,001150
467,000000	0,001340
466,000000	0,001772
465,000000	0,001376
464,000000	0,001744
463,000000	0,001546
462,000000	0,002102
461,000000	0,001463
460,000000	0,001506
459,000000	0,001736
458,000000	0,001589
457,000000	0,001611
456,000000	0,002381
455,000000	0,002053
454,000000	0,001684
453,000000	0,001824
452,000000	0,001671
451,000000	0,001880
450,000000	0,002461
449,000000	0,002433
448,000000	0,002350
447,000000	0,002197
446,000000	0,002117
445,000000	0,002443
444,000000	0,002231
443,000000	0,002224
442,000000	0,002595
441,000000	0,002611
440,000000	0,002972
439,000000	0,003089
438,000000	0,003027
437,000000	0,002562
436,000000	0,002730
435,000000	0,003396
434,000000	0,002947
433,000000	0,003575
432,000000	0,003485
431,000000	0,003682
430,000000	0,003587
429,000000	0,003921
428,000000	0,004230
427,000000	0,005073
426,000000	0,005549
425,000000	0,005731
424,000000	0,006268
423,000000	0,006810
422,000000	0,007233
421,000000	0,007510
420,000000	0,008619
419,000000	0,010118
418,000000	0,011264
417,000000	0,012360
416,000000	0,014365
415,000000	0,016891
414,000000	0,019519
413,000000	0,022554
412,000000	0,026682
411,000000	0,031523
410,000000	0,037336
409,000000	0,044115
408,000000	0,052309
407,000000	0,061892
406,000000	0,073412
405,000000	0,086401
404,000000	0,101688
403,000000	0,118850
402,000000	0,139492
401,000000	0,163672
400,000000	0,191472
399,000000	0,224950
398,000000	0,258084
397,000000	0,296117
396,000000	0,339941
395,000000	0,390989
394,000000	0,449619
393,000000	0,514400
392,000000	0,592342
391,000000	0,674498
390,000000	0,762562
