PE UV       SUBTECH     SPECTRUM    ASCII       PEDS        4.00        
   -1
7.Sample.Raw.asc
20/11/02
13:22:03.00
20/11/02
13:22:03.00
Analyst

390,000000
1
Lambda 25
501s11081509
PerkinElmer UV WinLab 6.0.3.0730 / Lambda25 1.27

480
2
1
0
0
Both on
1
1
1
None
0
0
0
0
 
 
0
0
0
0
0
 
 
 
0
 
0
326
0
 
0
 
 
 
0
0
0
 
0
 
 
 
0
 
 
0
0
0
0
0
 
 
 
 
0
0


#HDR
-1
-1
#GR
nm
A
1.0
0.0
700,000000
-1,000000
311
8
0,033999
-0,001156
#DATA
700,000000	-0,000683
699,000000	-0,000815
698,000000	-0,000725
697,000000	-0,000709
696,000000	-0,000659
695,000000	-0,000779
694,000000	-0,000660
693,000000	-0,000648
692,000000	-0,000734
691,000000	-0,000644
690,000000	-0,000460
689,000000	-0,000685
688,000000	-0,000587
687,000000	-0,000682
686,000000	-0,000682
685,000000	-0,000904
684,000000	-0,000830
683,000000	-0,000518
682,000000	-0,000621
681,000000	-0,000609
680,000000	-0,000782
679,000000	-0,000659
678,000000	-0,000775
677,000000	-0,000573
676,000000	-0,000532
675,000000	-0,000532
674,000000	-0,001085
673,000000	-0,000508
672,000000	-0,000702
671,000000	-0,000731
670,000000	-0,000661
669,000000	-0,000883
668,000000	-0,001156
667,000000	-0,000917
666,000000	-0,000905
665,000000	-0,000739
664,000000	-0,001050
663,000000	-0,000521
662,000000	-0,000835
661,000000	-0,001141
660,000000	-0,000670
659,000000	-0,000546
658,000000	-0,000860
657,000000	-0,000720
656,000000	-0,000712
655,000000	-0,000902
654,000000	-0,000919
653,000000	-0,000803
652,000000	-0,000700
651,000000	-0,000249
650,000000	-0,000638
649,000000	-0,000452
648,000000	-0,000315
647,000000	-0,000609
646,000000	-0,000639
645,000000	-0,000394
644,000000	-0,000319
643,000000	-0,000651
642,000000	-0,000340
641,000000	-0,000062
640,000000	-0,000598
639,000000	-0,000295
638,000000	-0,000125
637,000000	-0,000552
636,000000	-0,000423
635,000000	-0,000125
634,000000	-0,000145
633,000000	-0,000345
632,000000	-0,000453
631,000000	-0,000021
630,000000	-0,000494
629,000000	-0,000411
628,000000	-0,000399
627,000000	-0,000361
626,000000	-0,000432
625,000000	-0,000249
624,000000	-0,000216
623,000000	-0,000116
622,000000	-0,000299
621,000000	-0,000075
620,000000	-0,000083
619,000000	-0,000220
618,000000	-0,000191
617,000000	0,000116
616,000000	-0,000104
615,000000	-0,000328
614,000000	0,000187
613,000000	0,000100
612,000000	-0,000374
611,000000	-0,000266
610,000000	0,000503
609,000000	-0,000162
608,000000	-0,000100
607,000000	0,000183
606,000000	0,000279
605,000000	0,000200
604,000000	0,000075
603,000000	0,000541
602,000000	0,000495
601,000000	0,000146
600,000000	0,000586
599,000000	0,000565
598,000000	0,000079
597,000000	0,000262
596,000000	0,000611
595,000000	0,000420
594,000000	0,000295
593,000000	0,000616
592,000000	0,000462
591,000000	0,000216
590,000000	0,000329
589,000000	0,000550
588,000000	0,000480
587,000000	0,000413
586,000000	0,000564
585,000000	0,000506
584,000000	0,000134
583,000000	0,000348
582,000000	0,000793
581,000000	0,000731
580,000000	0,000773
579,000000	0,000993
578,000000	0,000948
577,000000	0,000768
576,000000	0,000899
575,000000	0,000964
574,000000	0,000901
573,000000	0,000715
572,000000	0,001058
571,000000	0,001346
570,000000	0,001025
569,000000	0,001241
568,000000	0,001556
567,000000	0,001399
566,000000	0,001475
565,000000	0,001560
564,000000	0,001613
563,000000	0,001371
562,000000	0,001769
561,000000	0,001380
560,000000	0,001490
559,000000	0,001758
558,000000	0,002130
557,000000	0,001902
556,000000	0,001765
555,000000	0,002168
554,000000	0,001864
553,000000	0,002229
552,000000	0,001731
551,000000	0,002347
550,000000	0,002059
549,000000	0,002151
548,000000	0,002410
547,000000	0,002559
546,000000	0,002198
545,000000	0,002299
544,000000	0,002758
543,000000	0,002508
542,000000	0,002643
541,000000	0,002897
540,000000	0,002678
539,000000	0,002470
538,000000	0,002893
537,000000	0,002775
536,000000	0,002825
535,000000	0,003146
534,000000	0,003108
533,000000	0,003021
532,000000	0,002961
531,000000	0,003181
530,000000	0,003098
529,000000	0,003345
528,000000	0,003421
527,000000	0,003216
526,000000	0,003537
525,000000	0,003687
524,000000	0,003565
523,000000	0,003613
522,000000	0,003722
521,000000	0,003836
520,000000	0,003884
519,000000	0,004079
518,000000	0,003899
517,000000	0,003956
516,000000	0,004096
515,000000	0,004313
514,000000	0,004422
513,000000	0,004435
512,000000	0,004595
511,000000	0,004564
510,000000	0,004431
509,000000	0,004605
508,000000	0,004503
507,000000	0,004803
506,000000	0,004582
505,000000	0,004887
504,000000	0,005004
503,000000	0,005310
502,000000	0,004853
501,000000	0,005115
500,000000	0,005340
499,000000	0,005187
498,000000	0,005534
497,000000	0,005763
496,000000	0,005710
495,000000	0,005812
494,000000	0,006243
493,000000	0,006006
492,000000	0,006181
491,000000	0,006496
490,000000	0,006455
489,000000	0,006101
488,000000	0,006255
487,000000	0,006707
486,000000	0,006417
485,000000	0,006295
484,000000	0,007101
483,000000	0,007107
482,000000	0,006728
481,000000	0,007014
480,000000	0,006974
479,000000	0,007354
478,000000	0,006896
477,000000	0,007484
476,000000	0,007549
475,000000	0,007584
474,000000	0,007821
473,000000	0,007942
472,000000	0,007769
471,000000	0,007861
470,000000	0,008198
469,000000	0,008131
468,000000	0,007873
467,000000	0,008058
466,000000	0,008768
465,000000	0,008427
464,000000	0,008795
463,000000	0,008509
462,000000	0,008868
461,000000	0,008601
460,000000	0,008797
459,000000	0,008969
458,000000	0,008584
457,000000	0,008796
456,000000	0,009834
455,000000	0,009509
454,000000	0,008986
453,000000	0,009387
452,000000	0,009256
451,000000	0,009650
450,000000	0,010002
449,000000	0,010029
448,000000	0,010167
447,000000	0,010131
446,000000	0,010023
445,000000	0,010190
444,000000	0,010280
443,000000	0,010031
442,000000	0,010684
441,000000	0,010839
440,000000	0,010787
439,000000	0,010854
438,000000	0,010896
437,000000	0,011070
436,000000	0,011203
435,000000	0,011572
434,000000	0,011996
433,000000	0,011795
432,000000	0,011888
431,000000	0,012092
430,000000	0,011885
429,000000	0,012332
428,000000	0,012291
427,000000	0,012783
426,000000	0,013464
425,000000	0,013192
424,000000	0,013487
423,000000	0,013199
422,000000	0,013856
421,000000	0,014277
420,000000	0,014698
419,000000	0,015098
418,000000	0,015167
417,000000	0,015503
416,000000	0,015723
415,000000	0,016221
414,000000	0,016816
413,000000	0,016827
412,000000	0,017495
411,000000	0,017836
410,000000	0,018260
409,000000	0,018849
408,000000	0,019203
407,000000	0,019817
406,000000	0,020782
405,000000	0,021537
404,000000	0,022065
403,000000	0,022737
402,000000	0,023524
401,000000	0,024214
400,000000	0,025049
399,000000	0,025598
398,000000	0,026597
397,000000	0,027508
396,000000	0,028224
395,000000	0,029409
394,000000	0,029955
393,000000	0,031124
392,000000	0,032048
391,000000	0,032723
390,000000	0,033999
