PE UV       SUBTECH     SPECTRUM    ASCII       PEDS        4.00        
   -1
branco.Sample.Raw.asc
20/11/02
13:15:37.00
20/11/02
13:15:37.00
Analyst

390,000000
1
Lambda 25
501s11081509
PerkinElmer UV WinLab 6.0.3.0730 / Lambda25 1.27

480
2
1
0
0
Both on
1
1
1
None
0
0
0
0
 
 
0
0
0
0
0
 
 
 
0
 
0
326
0
 
0
 
 
 
0
0
0
 
0
 
 
 
0
 
 
0
0
0
0
0
 
 
 
 
0
0


#HDR
-1
-1
#GR
nm
A
1.0
0.0
700,000000
-1,000000
311
8
0,000661
-0,001133
#DATA
700,000000	-0,000691
699,000000	-0,000950
698,000000	-0,000754
697,000000	-0,000737
696,000000	-0,000725
695,000000	-0,000754
694,000000	-0,000791
693,000000	-0,000775
692,000000	-0,000702
691,000000	-0,000792
690,000000	-0,000640
689,000000	-0,000768
688,000000	-0,000694
687,000000	-0,000912
686,000000	-0,000858
685,000000	-0,000793
684,000000	-0,000703
683,000000	-0,000609
682,000000	-0,000263
681,000000	-0,000585
680,000000	-0,000622
679,000000	-0,000680
678,000000	-0,000767
677,000000	-0,000647
676,000000	-0,000387
675,000000	-0,000729
674,000000	-0,000776
673,000000	-0,000771
672,000000	-0,000945
671,000000	-0,000685
670,000000	-0,000859
669,000000	-0,000912
668,000000	-0,000793
667,000000	-0,000901
666,000000	-0,000934
665,000000	-0,001003
664,000000	-0,001133
663,000000	-0,000715
662,000000	-0,000835
661,000000	-0,001120
660,000000	-0,000703
659,000000	-0,000806
658,000000	-0,000993
657,000000	-0,000840
656,000000	-0,000658
655,000000	-0,000857
654,000000	-0,000720
653,000000	-0,000729
652,000000	-0,000691
651,000000	-0,000547
650,000000	-0,000468
649,000000	-0,000721
648,000000	-0,000621
647,000000	-0,000680
646,000000	-0,000895
645,000000	-0,000800
644,000000	-0,000556
643,000000	-0,000697
642,000000	-0,000660
641,000000	-0,000448
640,000000	-0,000888
639,000000	-0,000481
638,000000	-0,000751
637,000000	-0,000735
636,000000	-0,000585
635,000000	-0,000627
634,000000	-0,000655
633,000000	-0,000701
632,000000	-0,000785
631,000000	-0,000714
630,000000	-0,000552
629,000000	-0,000806
628,000000	-0,000619
627,000000	-0,000914
626,000000	-0,000648
625,000000	-0,000835
624,000000	-0,000810
623,000000	-0,000569
622,000000	-0,000523
621,000000	-0,000652
620,000000	-0,000752
619,000000	-0,000577
618,000000	-0,000789
617,000000	-0,000515
616,000000	-0,000565
615,000000	-0,000673
614,000000	-0,000428
613,000000	-0,000536
612,000000	-0,000573
611,000000	-0,000707
610,000000	-0,000503
609,000000	-0,000748
608,000000	-0,000565
607,000000	-0,000503
606,000000	-0,000665
605,000000	-0,000578
604,000000	-0,000677
603,000000	-0,000540
602,000000	-0,000490
601,000000	-0,000540
600,000000	-0,000245
599,000000	-0,000436
598,000000	-0,000602
597,000000	-0,000499
596,000000	-0,000365
595,000000	-0,000378
594,000000	-0,000357
593,000000	-0,000540
592,000000	-0,000802
591,000000	-0,000611
590,000000	-0,000499
589,000000	-0,000749
588,000000	-0,000450
587,000000	-0,000396
586,000000	-0,000622
585,000000	-0,000772
584,000000	-0,000944
583,000000	-0,000728
582,000000	-0,000544
581,000000	-0,000507
580,000000	-0,000143
579,000000	-0,000634
578,000000	-0,000770
577,000000	-0,000623
576,000000	-0,000451
575,000000	-0,000637
574,000000	-0,000709
573,000000	-0,000456
572,000000	-0,000668
571,000000	-0,000448
570,000000	-0,000397
569,000000	-0,000486
568,000000	-0,000664
567,000000	-0,000571
566,000000	-0,000157
565,000000	-0,000275
564,000000	-0,000538
563,000000	-0,000737
562,000000	-0,000347
561,000000	-0,001088
560,000000	-0,000491
559,000000	-0,000224
558,000000	-0,000491
557,000000	-0,000741
556,000000	-0,000449
555,000000	-0,000047
554,000000	-0,000749
553,000000	-0,000580
552,000000	-0,000584
551,000000	-0,000693
550,000000	-0,000631
549,000000	-0,000292
548,000000	-0,000537
547,000000	-0,000389
546,000000	-0,000343
545,000000	-0,000376
544,000000	-0,000169
543,000000	-0,000520
542,000000	-0,000283
541,000000	-0,000068
540,000000	-0,000592
539,000000	-0,000351
538,000000	-0,000123
537,000000	-0,000516
536,000000	-0,000325
535,000000	-0,000135
534,000000	-0,000279
533,000000	-0,000663
532,000000	-0,000270
531,000000	-0,000177
530,000000	-0,000482
529,000000	-0,000211
528,000000	-0,000152
527,000000	-0,000296
526,000000	-0,000570
525,000000	-0,000030
524,000000	-0,000203
523,000000	-0,000541
522,000000	-0,000363
521,000000	-0,000021
520,000000	-0,000287
519,000000	-0,000557
518,000000	-0,000021
517,000000	-0,000207
516,000000	-0,000405
515,000000	-0,000380
514,000000	0,000177
513,000000	-0,000266
512,000000	-0,000219
511,000000	-0,000329
510,000000	-0,000063
509,000000	-0,000401
508,000000	-0,000240
507,000000	-0,000181
506,000000	-0,000185
505,000000	-0,000354
504,000000	-0,000286
503,000000	-0,000265
502,000000	-0,000724
501,000000	-0,000295
500,000000	-0,000093
499,000000	-0,000160
498,000000	-0,000282
497,000000	-0,000059
496,000000	-0,000021
495,000000	-0,000252
494,000000	0,000050
493,000000	-0,000050
492,000000	-0,000261
491,000000	-0,000101
490,000000	0,000029
489,000000	-0,000227
488,000000	-0,000437
487,000000	-0,000449
486,000000	-0,000248
485,000000	-0,000386
484,000000	-0,000046
483,000000	0,000076
482,000000	-0,000025
481,000000	-0,000269
480,000000	-0,000206
479,000000	-0,000126
478,000000	-0,000277
477,000000	-0,000273
476,000000	0,000147
475,000000	0,000088
474,000000	0,000076
473,000000	0,000092
472,000000	0,000088
471,000000	-0,000088
470,000000	0,000038
469,000000	0,000185
468,000000	-0,000303
467,000000	-0,000126
466,000000	-0,000042
465,000000	-0,000228
464,000000	0,000148
463,000000	0,000055
462,000000	0,000371
461,000000	0,000114
460,000000	-0,000046
459,000000	0,000093
458,000000	-0,000287
457,000000	-0,000351
456,000000	0,000059
455,000000	0,000085
454,000000	0,000119
453,000000	-0,000148
452,000000	-0,000068
451,000000	0,000347
450,000000	0,000326
449,000000	-0,000161
448,000000	-0,000161
447,000000	0,000051
446,000000	-0,000030
445,000000	0,000132
444,000000	-0,000106
443,000000	-0,000106
442,000000	0,000395
441,000000	-0,000094
440,000000	0,000123
439,000000	0,000251
438,000000	0,000077
437,000000	0,000034
436,000000	-0,000090
435,000000	0,000316
434,000000	0,000269
433,000000	-0,000064
432,000000	0,000013
431,000000	-0,000213
430,000000	-0,000393
429,000000	0,000205
428,000000	-0,000175
427,000000	0,000393
426,000000	0,000214
425,000000	0,000103
424,000000	-0,000248
423,000000	-0,000205
422,000000	-0,000342
421,000000	-0,000111
420,000000	0,000355
419,000000	0,000381
418,000000	0,000312
417,000000	0,000411
416,000000	0,000227
415,000000	0,000530
414,000000	0,000402
413,000000	0,000098
412,000000	0,000214
411,000000	0,000047
410,000000	0,000184
409,000000	0,000342
408,000000	0,000265
407,000000	0,000312
406,000000	0,000661
405,000000	0,000559
404,000000	0,000606
403,000000	0,000230
402,000000	0,000572
401,000000	0,000460
400,000000	0,000486
399,000000	0,000439
398,000000	0,000439
397,000000	0,000639
396,000000	0,000435
395,000000	0,000660
394,000000	0,000094
393,000000	0,000596
392,000000	0,000656
391,000000	0,000319
390,000000	0,000502
