PE UV       SUBTECH     SPECTRUM    ASCII       PEDS        4.00        
   -1
37 5x.Sample.Raw.asc
20/11/03
16:46:08.00
20/11/03
16:46:08.00
Analyst

390,000000
1
Lambda 25
501s11081509
PerkinElmer UV WinLab 6.0.3.0730 / Lambda25 1.27

480
2
1
0
0
Both on
1
1
1
None
0
0
0
0
 
 
0
0
0
0
0
 
 
 
0
 
0
326
0
 
0
 
 
 
0
0
0
 
0
 
 
 
0
 
 
0
0
0
0
0
 
 
 
 
0
0


#HDR
-1
-1
#GR
nm
A
1.0
0.0
700,000000
-1,000000
311
8
0,964672
0,013190
#DATA
700,000000	0,013461
699,000000	0,013295
698,000000	0,013317
697,000000	0,013190
696,000000	0,013442
695,000000	0,013668
694,000000	0,013537
693,000000	0,013728
692,000000	0,013810
691,000000	0,013720
690,000000	0,013595
689,000000	0,013687
688,000000	0,013642
687,000000	0,013438
686,000000	0,013744
685,000000	0,013503
684,000000	0,013623
683,000000	0,013532
682,000000	0,013694
681,000000	0,013228
680,000000	0,013453
679,000000	0,013236
678,000000	0,013787
677,000000	0,013476
676,000000	0,013647
675,000000	0,013940
674,000000	0,013887
673,000000	0,013880
672,000000	0,013908
671,000000	0,013944
670,000000	0,014018
669,000000	0,013963
668,000000	0,014055
667,000000	0,014008
666,000000	0,013971
665,000000	0,014180
664,000000	0,014366
663,000000	0,014120
662,000000	0,014152
661,000000	0,014446
660,000000	0,014461
659,000000	0,014181
658,000000	0,014178
657,000000	0,014540
656,000000	0,014677
655,000000	0,014579
654,000000	0,015008
653,000000	0,014867
652,000000	0,014533
651,000000	0,014422
650,000000	0,014582
649,000000	0,014972
648,000000	0,014693
647,000000	0,014458
646,000000	0,014979
645,000000	0,015111
644,000000	0,014352
643,000000	0,014516
642,000000	0,014622
641,000000	0,014377
640,000000	0,014255
639,000000	0,014724
638,000000	0,014736
637,000000	0,015107
636,000000	0,015119
635,000000	0,015170
634,000000	0,015429
633,000000	0,015151
632,000000	0,014901
631,000000	0,015682
630,000000	0,015069
629,000000	0,015335
628,000000	0,015246
627,000000	0,015394
626,000000	0,015249
625,000000	0,015443
624,000000	0,015762
623,000000	0,015482
622,000000	0,015831
621,000000	0,015841
620,000000	0,015967
619,000000	0,015963
618,000000	0,015894
617,000000	0,015988
616,000000	0,015759
615,000000	0,015915
614,000000	0,015790
613,000000	0,015950
612,000000	0,015981
611,000000	0,015897
610,000000	0,016271
609,000000	0,016106
608,000000	0,016222
607,000000	0,016262
606,000000	0,016222
605,000000	0,016582
604,000000	0,016245
603,000000	0,016512
602,000000	0,016392
601,000000	0,016532
600,000000	0,016009
599,000000	0,016766
598,000000	0,016692
597,000000	0,016574
596,000000	0,016679
595,000000	0,017012
594,000000	0,016868
593,000000	0,016581
592,000000	0,016993
591,000000	0,016686
590,000000	0,016670
589,000000	0,016820
588,000000	0,016636
587,000000	0,017179
586,000000	0,016841
585,000000	0,016760
584,000000	0,017277
583,000000	0,017163
582,000000	0,016965
581,000000	0,016990
580,000000	0,017274
579,000000	0,017391
578,000000	0,017533
577,000000	0,017465
576,000000	0,017337
575,000000	0,017836
574,000000	0,017538
573,000000	0,017491
572,000000	0,017506
571,000000	0,017738
570,000000	0,017764
569,000000	0,017894
568,000000	0,017925
567,000000	0,017497
566,000000	0,017839
565,000000	0,017481
564,000000	0,017330
563,000000	0,017678
562,000000	0,017795
561,000000	0,017349
560,000000	0,017757
559,000000	0,018130
558,000000	0,018159
557,000000	0,017691
556,000000	0,017966
555,000000	0,018289
554,000000	0,017889
553,000000	0,018134
552,000000	0,018477
551,000000	0,018362
550,000000	0,018538
549,000000	0,018576
548,000000	0,018813
547,000000	0,018459
546,000000	0,018354
545,000000	0,018626
544,000000	0,018734
543,000000	0,018412
542,000000	0,018408
541,000000	0,018689
540,000000	0,019008
539,000000	0,018798
538,000000	0,018661
537,000000	0,018995
536,000000	0,018841
535,000000	0,019027
534,000000	0,019242
533,000000	0,018966
532,000000	0,019326
531,000000	0,019138
530,000000	0,019156
529,000000	0,019411
528,000000	0,019328
527,000000	0,019503
526,000000	0,019452
525,000000	0,019433
524,000000	0,019804
523,000000	0,019649
522,000000	0,019330
521,000000	0,019789
520,000000	0,020283
519,000000	0,019808
518,000000	0,019836
517,000000	0,020017
516,000000	0,019961
515,000000	0,019658
514,000000	0,019421
513,000000	0,020334
512,000000	0,020220
511,000000	0,020226
510,000000	0,020081
509,000000	0,020470
508,000000	0,020235
507,000000	0,020262
506,000000	0,020420
505,000000	0,020453
504,000000	0,020815
503,000000	0,020313
502,000000	0,020899
501,000000	0,020874
500,000000	0,020677
499,000000	0,020781
498,000000	0,020768
497,000000	0,021133
496,000000	0,020887
495,000000	0,021405
494,000000	0,021522
493,000000	0,021254
492,000000	0,021329
491,000000	0,021413
490,000000	0,021670
489,000000	0,021594
488,000000	0,021482
487,000000	0,021826
486,000000	0,021541
485,000000	0,021644
484,000000	0,021913
483,000000	0,022043
482,000000	0,022230
481,000000	0,021921
480,000000	0,022386
479,000000	0,022297
478,000000	0,022665
477,000000	0,022492
476,000000	0,022818
475,000000	0,022297
474,000000	0,022794
473,000000	0,022691
472,000000	0,022862
471,000000	0,023094
470,000000	0,023166
469,000000	0,023115
468,000000	0,023355
467,000000	0,023482
466,000000	0,023469
465,000000	0,023804
464,000000	0,024232
463,000000	0,023438
462,000000	0,024075
461,000000	0,024225
460,000000	0,024282
459,000000	0,024412
458,000000	0,024775
457,000000	0,025128
456,000000	0,024675
455,000000	0,025328
454,000000	0,025361
453,000000	0,025579
452,000000	0,025505
451,000000	0,026024
450,000000	0,026177
449,000000	0,026390
448,000000	0,026626
447,000000	0,026987
446,000000	0,027007
445,000000	0,026746
444,000000	0,027677
443,000000	0,027752
442,000000	0,028831
441,000000	0,028980
440,000000	0,029747
439,000000	0,030233
438,000000	0,030880
437,000000	0,031685
436,000000	0,033014
435,000000	0,033669
434,000000	0,035205
433,000000	0,037300
432,000000	0,038787
431,000000	0,041049
430,000000	0,044436
429,000000	0,047598
428,000000	0,051100
427,000000	0,055610
426,000000	0,060377
425,000000	0,065661
424,000000	0,071431
423,000000	0,077709
422,000000	0,085933
421,000000	0,093361
420,000000	0,102407
419,000000	0,112938
418,000000	0,124711
417,000000	0,135139
416,000000	0,147573
415,000000	0,161420
414,000000	0,176753
413,000000	0,192236
412,000000	0,210047
411,000000	0,229502
410,000000	0,250443
409,000000	0,272172
408,000000	0,295536
407,000000	0,320512
406,000000	0,346071
405,000000	0,374102
404,000000	0,404091
403,000000	0,435997
402,000000	0,469348
401,000000	0,505515
400,000000	0,544245
399,000000	0,585551
398,000000	0,624251
397,000000	0,663819
396,000000	0,705971
395,000000	0,748770
394,000000	0,794015
393,000000	0,838334
392,000000	0,883379
391,000000	0,925351
390,000000	0,964672
