PE UV       SUBTECH     SPECTRUM    ASCII       PEDS        4.00        
   -1
100% or 0 Absorbance Baseline.Correction.Raw.asc
20/08/26
15:46:51.00
20/08/26
15:46:51.00
Analyst

390,000000
1
Lambda 25
501s11081509
PerkinElmer UV WinLab 6.0.3.0730 / Lambda25 1.27

480
0
1
0
0
Both on
0
1
1
None
0
0
0
0
 
 
0
0
0
0
0
 
 
 
0
 
0
326
0
 
0
 
 
 
0
0
0
 
0
 
 
 
0
 
 
0
0
0
0
0
 
 
 
 
0
0


#HDR
-1
-1
#GR
nm
A
1.0
0.0
700,000000
-1,000000
311
8
-0,007099
-0,025560
#DATA
700,000000	-0,025560
699,000000	-0,025441
698,000000	-0,025240
697,000000	-0,025093
696,000000	-0,024929
695,000000	-0,024605
694,000000	-0,024596
693,000000	-0,024638
692,000000	-0,024449
691,000000	-0,024395
690,000000	-0,024293
689,000000	-0,024239
688,000000	-0,024059
687,000000	-0,023845
686,000000	-0,023619
685,000000	-0,023578
684,000000	-0,023306
683,000000	-0,022878
682,000000	-0,022828
681,000000	-0,022812
680,000000	-0,022457
679,000000	-0,022379
678,000000	-0,022503
677,000000	-0,022387
676,000000	-0,022189
675,000000	-0,022053
674,000000	-0,022135
673,000000	-0,021917
672,000000	-0,021768
671,000000	-0,021611
670,000000	-0,021723
669,000000	-0,021607
668,000000	-0,021305
667,000000	-0,021276
666,000000	-0,021107
665,000000	-0,021185
664,000000	-0,021297
663,000000	-0,020987
662,000000	-0,021011
661,000000	-0,021028
660,000000	-0,020879
659,000000	-0,020705
658,000000	-0,020602
657,000000	-0,020589
656,000000	-0,020494
655,000000	-0,020527
654,000000	-0,020589
653,000000	-0,020349
652,000000	-0,020361
651,000000	-0,020237
650,000000	-0,020150
649,000000	-0,020092
648,000000	-0,020229
647,000000	-0,020055
646,000000	-0,019814
645,000000	-0,019818
644,000000	-0,019826
643,000000	-0,019577
642,000000	-0,019839
641,000000	-0,019515
640,000000	-0,019594
639,000000	-0,019420
638,000000	-0,019411
637,000000	-0,019237
636,000000	-0,019403
635,000000	-0,019104
634,000000	-0,019162
633,000000	-0,019407
632,000000	-0,019253
631,000000	-0,018996
630,000000	-0,019253
629,000000	-0,018958
628,000000	-0,019054
627,000000	-0,018996
626,000000	-0,019041
625,000000	-0,018992
624,000000	-0,019191
623,000000	-0,019058
622,000000	-0,019096
621,000000	-0,019162
620,000000	-0,019100
619,000000	-0,019012
618,000000	-0,018958
617,000000	-0,018904
616,000000	-0,019062
615,000000	-0,019087
614,000000	-0,019000
613,000000	-0,019096
612,000000	-0,018983
611,000000	-0,019154
610,000000	-0,019112
609,000000	-0,019041
608,000000	-0,018967
607,000000	-0,018971
606,000000	-0,019150
605,000000	-0,019324
604,000000	-0,019307
603,000000	-0,019386
602,000000	-0,019374
601,000000	-0,019112
600,000000	-0,019266
599,000000	-0,019241
598,000000	-0,019066
597,000000	-0,019204
596,000000	-0,019154
595,000000	-0,019345
594,000000	-0,019179
593,000000	-0,019245
592,000000	-0,019120
591,000000	-0,018842
590,000000	-0,018775
589,000000	-0,018114
588,000000	-0,018022
587,000000	-0,017647
586,000000	-0,017271
585,000000	-0,017150
584,000000	-0,016624
583,000000	-0,015988
582,000000	-0,015217
581,000000	-0,014806
580,000000	-0,014441
579,000000	-0,014126
578,000000	-0,013604
577,000000	-0,012985
576,000000	-0,012879
575,000000	-0,012310
574,000000	-0,012213
573,000000	-0,011964
572,000000	-0,011587
571,000000	-0,011439
570,000000	-0,011109
569,000000	-0,011080
568,000000	-0,010961
567,000000	-0,011033
566,000000	-0,010931
565,000000	-0,011046
564,000000	-0,010923
563,000000	-0,011037
562,000000	-0,011109
561,000000	-0,011097
560,000000	-0,010737
559,000000	-0,010881
558,000000	-0,011308
557,000000	-0,011397
556,000000	-0,011279
555,000000	-0,011592
554,000000	-0,011245
553,000000	-0,011109
552,000000	-0,011266
551,000000	-0,011397
550,000000	-0,011291
549,000000	-0,011515
548,000000	-0,011499
547,000000	-0,011367
546,000000	-0,011448
545,000000	-0,011570
544,000000	-0,011740
543,000000	-0,011642
542,000000	-0,011811
541,000000	-0,011634
540,000000	-0,011913
539,000000	-0,012078
538,000000	-0,011816
537,000000	-0,011871
536,000000	-0,011985
535,000000	-0,011803
534,000000	-0,011909
533,000000	-0,012128
532,000000	-0,012027
531,000000	-0,012107
530,000000	-0,012014
529,000000	-0,012149
528,000000	-0,012145
527,000000	-0,012166
526,000000	-0,012213
525,000000	-0,012331
524,000000	-0,012116
523,000000	-0,012027
522,000000	-0,012183
521,000000	-0,012344
520,000000	-0,012352
519,000000	-0,012812
518,000000	-0,012694
517,000000	-0,012723
516,000000	-0,012825
515,000000	-0,012572
514,000000	-0,012900
513,000000	-0,012888
512,000000	-0,012943
511,000000	-0,012926
510,000000	-0,013440
509,000000	-0,013179
508,000000	-0,013242
507,000000	-0,013267
506,000000	-0,013301
505,000000	-0,013448
504,000000	-0,013604
503,000000	-0,013697
502,000000	-0,013684
501,000000	-0,013886
500,000000	-0,014138
499,000000	-0,013936
498,000000	-0,014197
497,000000	-0,014100
496,000000	-0,014357
495,000000	-0,014289
494,000000	-0,014474
493,000000	-0,014289
492,000000	-0,014449
491,000000	-0,014369
490,000000	-0,014596
489,000000	-0,014793
488,000000	-0,014928
487,000000	-0,015037
486,000000	-0,014865
485,000000	-0,014726
484,000000	-0,015037
483,000000	-0,014911
482,000000	-0,015070
481,000000	-0,015163
480,000000	-0,015339
479,000000	-0,015305
478,000000	-0,015326
477,000000	-0,015230
476,000000	-0,015146
475,000000	-0,014961
474,000000	-0,014957
473,000000	-0,015028
472,000000	-0,014697
471,000000	-0,014697
470,000000	-0,014697
469,000000	-0,014747
468,000000	-0,014159
467,000000	-0,014012
466,000000	-0,014096
465,000000	-0,013499
464,000000	-0,013520
463,000000	-0,013174
462,000000	-0,013305
461,000000	-0,013035
460,000000	-0,012884
459,000000	-0,012609
458,000000	-0,012428
457,000000	-0,011955
456,000000	-0,012023
455,000000	-0,011642
454,000000	-0,011579
453,000000	-0,011756
452,000000	-0,011638
451,000000	-0,011735
450,000000	-0,011465
449,000000	-0,011410
448,000000	-0,011274
447,000000	-0,011240
446,000000	-0,010982
445,000000	-0,010944
444,000000	-0,010809
443,000000	-0,010062
442,000000	-0,010139
441,000000	-0,009825
440,000000	-0,009459
439,000000	-0,009260
438,000000	-0,009294
437,000000	-0,008604
436,000000	-0,008677
435,000000	-0,008374
434,000000	-0,008234
433,000000	-0,008097
432,000000	-0,008046
431,000000	-0,008170
430,000000	-0,008396
429,000000	-0,008230
428,000000	-0,008085
427,000000	-0,007846
426,000000	-0,007586
425,000000	-0,007675
424,000000	-0,007569
423,000000	-0,007901
422,000000	-0,007923
421,000000	-0,007099
420,000000	-0,007133
419,000000	-0,007449
418,000000	-0,007355
417,000000	-0,007381
416,000000	-0,007458
415,000000	-0,007355
414,000000	-0,007470
413,000000	-0,007569
412,000000	-0,007530
411,000000	-0,007752
410,000000	-0,007765
409,000000	-0,007637
408,000000	-0,007812
407,000000	-0,007812
406,000000	-0,007863
405,000000	-0,008063
404,000000	-0,008195
403,000000	-0,008447
402,000000	-0,008443
401,000000	-0,008387
400,000000	-0,008536
399,000000	-0,008549
398,000000	-0,008707
397,000000	-0,008685
396,000000	-0,008651
395,000000	-0,008881
394,000000	-0,008996
393,000000	-0,009145
392,000000	-0,009391
391,000000	-0,009217
390,000000	-0,009353
