PE UV       SUBTECH     SPECTRUM    ASCII       PEDS        4.00        
   -1
branco.Sample.Raw.asc
20/08/26
15:51:13.00
20/08/26
15:51:13.00
Analyst

390,000000
1
Lambda 25
501s11081509
PerkinElmer UV WinLab 6.0.3.0730 / Lambda25 1.27

480
2
1
0
0
Both on
1
1
1
None
0
0
0
0
 
 
0
0
0
0
0
 
 
 
0
 
0
326
0
 
0
 
 
 
0
0
0
 
0
 
 
 
0
 
 
0
0
0
0
0
 
 
 
 
0
0


#HDR
-1
-1
#GR
nm
A
1.0
0.0
700,000000
-1,000000
311
8
0,003529
-0,000305
#DATA
700,000000	0,000049
699,000000	0,000102
698,000000	0,000029
697,000000	0,000025
696,000000	-0,000234
695,000000	-0,000021
694,000000	-0,000070
693,000000	0,000193
692,000000	0,000078
691,000000	0,000078
690,000000	0,000148
689,000000	0,000049
688,000000	-0,000066
687,000000	0,000037
686,000000	0,000082
685,000000	0,000021
684,000000	0,000004
683,000000	-0,000095
682,000000	-0,000082
681,000000	-0,000214
680,000000	-0,000157
679,000000	-0,000305
678,000000	0,000115
677,000000	0,000083
676,000000	0,000206
675,000000	-0,000074
674,000000	0,000260
673,000000	0,000050
672,000000	-0,000008
671,000000	-0,000264
670,000000	0,000145
669,000000	-0,000099
668,000000	-0,000025
667,000000	0,000190
666,000000	0,000108
665,000000	0,000132
664,000000	0,000335
663,000000	-0,000004
662,000000	0,000178
661,000000	0,000170
660,000000	0,000012
659,000000	0,000062
658,000000	0,000220
657,000000	0,000141
656,000000	0,000319
655,000000	0,000240
654,000000	0,000261
653,000000	0,000062
652,000000	0,000128
651,000000	0,000174
650,000000	0,000004
649,000000	0,000415
648,000000	0,000274
647,000000	0,000490
646,000000	0,000062
645,000000	0,000365
644,000000	0,000199
643,000000	0,000120
642,000000	0,000183
641,000000	-0,000179
640,000000	0,000133
639,000000	0,000046
638,000000	0,000054
637,000000	0,000150
636,000000	0,000154
635,000000	-0,000212
634,000000	-0,000287
633,000000	-0,000054
632,000000	0,000100
631,000000	-0,000233
630,000000	-0,000050
629,000000	-0,000042
628,000000	0,000067
627,000000	0,000133
626,000000	0,000299
625,000000	0,000133
624,000000	0,000033
623,000000	0,000158
622,000000	0,000075
621,000000	-0,000050
620,000000	0,000162
619,000000	0,000046
618,000000	0,000175
617,000000	0,000158
616,000000	0,000283
615,000000	0,000175
614,000000	0,000175
613,000000	0,000229
612,000000	-0,000079
611,000000	0,000017
610,000000	0,000191
609,000000	0,000183
608,000000	0,000416
607,000000	0,000245
606,000000	0,000262
605,000000	0,000557
604,000000	0,000262
603,000000	0,000495
602,000000	0,000565
601,000000	0,000274
600,000000	0,000233
599,000000	0,000474
598,000000	0,000204
597,000000	0,000532
596,000000	0,000378
595,000000	0,000515
594,000000	0,000249
593,000000	0,000387
592,000000	0,000441
591,000000	0,000241
590,000000	0,000241
589,000000	0,000000
588,000000	0,000213
587,000000	0,000300
586,000000	0,000476
585,000000	0,000622
584,000000	0,000510
583,000000	0,000176
582,000000	-0,000088
581,000000	0,000185
580,000000	0,000387
579,000000	0,000458
578,000000	0,000573
577,000000	0,000257
576,000000	0,000426
575,000000	0,000101
574,000000	0,000439
573,000000	0,000380
572,000000	0,000326
571,000000	0,000440
570,000000	0,000457
569,000000	0,000343
568,000000	0,000475
567,000000	0,000470
566,000000	0,000309
565,000000	0,000517
564,000000	0,000725
563,000000	0,000610
562,000000	0,000449
561,000000	0,000513
560,000000	0,000254
559,000000	0,000784
558,000000	0,000809
557,000000	0,000902
556,000000	0,000665
555,000000	0,000940
554,000000	0,000423
553,000000	0,000462
552,000000	0,000750
551,000000	0,000826
550,000000	0,000720
549,000000	0,000914
548,000000	0,000948
547,000000	0,000593
546,000000	0,000504
545,000000	0,000647
544,000000	0,000736
543,000000	0,000474
542,000000	0,000791
541,000000	0,000770
540,000000	0,000981
539,000000	0,000854
538,000000	0,000681
537,000000	0,000829
536,000000	0,000545
535,000000	0,000562
534,000000	0,000914
533,000000	0,001053
532,000000	0,000875
531,000000	0,000791
530,000000	0,000681
529,000000	0,000960
528,000000	0,000922
527,000000	0,000752
526,000000	0,000871
525,000000	0,000968
524,000000	0,000765
523,000000	0,000820
522,000000	0,000909
521,000000	0,001129
520,000000	0,000917
519,000000	0,001335
518,000000	0,001060
517,000000	0,001098
516,000000	0,001246
515,000000	0,000638
514,000000	0,001144
513,000000	0,001026
512,000000	0,001220
511,000000	0,001047
510,000000	0,001721
509,000000	0,001084
508,000000	0,001211
507,000000	0,001135
506,000000	0,000953
505,000000	0,001282
504,000000	0,001480
503,000000	0,001349
502,000000	0,001442
501,000000	0,001470
500,000000	0,001470
499,000000	0,001340
498,000000	0,001558
497,000000	0,001082
496,000000	0,001300
495,000000	0,001229
494,000000	0,001435
493,000000	0,001123
492,000000	0,001671
491,000000	0,001283
490,000000	0,001249
489,000000	0,001552
488,000000	0,001509
487,000000	0,001631
486,000000	0,001231
485,000000	0,001345
484,000000	0,001332
483,000000	0,001273
482,000000	0,001517
481,000000	0,001546
480,000000	0,001588
479,000000	0,001832
478,000000	0,001764
477,000000	0,001689
476,000000	0,001677
475,000000	0,001606
474,000000	0,001774
473,000000	0,001761
472,000000	0,001615
471,000000	0,001485
470,000000	0,001822
469,000000	0,002146
468,000000	0,001643
467,000000	0,001559
466,000000	0,002027
465,000000	0,001666
464,000000	0,001691
463,000000	0,001604
462,000000	0,002086
461,000000	0,001638
460,000000	0,001783
459,000000	0,002098
458,000000	0,001607
457,000000	0,001464
456,000000	0,001612
455,000000	0,001533
454,000000	0,001610
453,000000	0,002144
452,000000	0,001784
451,000000	0,001732
450,000000	0,001585
449,000000	0,001887
448,000000	0,002070
447,000000	0,002338
446,000000	0,002097
445,000000	0,001948
444,000000	0,002617
443,000000	0,001743
442,000000	0,002378
441,000000	0,002316
440,000000	0,002096
439,000000	0,002110
438,000000	0,002481
437,000000	0,001873
436,000000	0,002125
435,000000	0,002024
434,000000	0,002226
433,000000	0,002038
432,000000	0,002021
431,000000	0,002423
430,000000	0,002628
429,000000	0,002650
428,000000	0,002510
427,000000	0,002382
426,000000	0,002045
425,000000	0,001727
424,000000	0,002019
423,000000	0,002399
422,000000	0,002322
421,000000	0,002309
420,000000	0,002292
419,000000	0,002603
418,000000	0,002406
417,000000	0,002595
416,000000	0,002573
415,000000	0,002574
414,000000	0,002436
413,000000	0,002538
412,000000	0,002517
411,000000	0,002481
410,000000	0,002773
409,000000	0,002486
408,000000	0,002760
407,000000	0,002717
406,000000	0,002627
405,000000	0,002776
404,000000	0,002882
403,000000	0,002837
402,000000	0,002962
401,000000	0,002671
400,000000	0,003128
399,000000	0,002888
398,000000	0,003041
397,000000	0,002686
396,000000	0,002810
395,000000	0,003057
394,000000	0,002971
393,000000	0,003043
392,000000	0,003529
391,000000	0,002944
390,000000	0,002964
