PE UV       SUBTECH     SPECTRUM    ASCII       PEDS        4.00        
   -1
100% or 0 Absorbance Baseline.Correction.Raw.asc
20/06/30
16:03:50.00
20/06/30
16:03:50.00
Analyst

350,000000
1
Lambda 25
501s11081509
PerkinElmer UV WinLab 6.0.3.0730 / Lambda25 1.27

480
0
1
0
0
Both on
0
1
1
None
0
0
0
0
 
 
0
0
0
0
0
 
 
 
0
 
0
326
0
 
0
 
 
 
0
0
0
 
0
 
 
 
0
 
 
0
0
0
0
0
 
 
 
 
0
0


#HDR
-1
-1
#GR
nm
A
1.0
0.0
700,000000
-1,000000
351
8
-0,003193
-0,075562
#DATA
700,000000	-0,026415
699,000000	-0,026137
698,000000	-0,025945
697,000000	-0,026022
696,000000	-0,025695
695,000000	-0,025527
694,000000	-0,025437
693,000000	-0,025421
692,000000	-0,025412
691,000000	-0,025240
690,000000	-0,025191
689,000000	-0,025146
688,000000	-0,024720
687,000000	-0,024605
686,000000	-0,024617
685,000000	-0,024297
684,000000	-0,024128
683,000000	-0,024178
682,000000	-0,024223
681,000000	-0,024174
680,000000	-0,023886
679,000000	-0,023800
678,000000	-0,023767
677,000000	-0,023619
676,000000	-0,023680
675,000000	-0,023479
674,000000	-0,023483
673,000000	-0,023347
672,000000	-0,023261
671,000000	-0,023080
670,000000	-0,023059
669,000000	-0,022692
668,000000	-0,022655
667,000000	-0,022441
666,000000	-0,022643
665,000000	-0,022643
664,000000	-0,022313
663,000000	-0,022123
662,000000	-0,022173
661,000000	-0,021962
660,000000	-0,022024
659,000000	-0,021628
658,000000	-0,021913
657,000000	-0,021545
656,000000	-0,021669
655,000000	-0,021537
654,000000	-0,021541
653,000000	-0,021516
652,000000	-0,021355
651,000000	-0,021280
650,000000	-0,021210
649,000000	-0,021177
648,000000	-0,020862
647,000000	-0,021305
646,000000	-0,021148
645,000000	-0,020738
644,000000	-0,020825
643,000000	-0,020655
642,000000	-0,020668
641,000000	-0,020780
640,000000	-0,020718
639,000000	-0,020788
638,000000	-0,020664
637,000000	-0,020548
636,000000	-0,020643
635,000000	-0,020291
634,000000	-0,020166
633,000000	-0,020386
632,000000	-0,020370
631,000000	-0,020415
630,000000	-0,020245
629,000000	-0,020291
628,000000	-0,020108
627,000000	-0,020117
626,000000	-0,020158
625,000000	-0,020187
624,000000	-0,020183
623,000000	-0,020042
622,000000	-0,020096
621,000000	-0,019976
620,000000	-0,020183
619,000000	-0,019943
618,000000	-0,019980
617,000000	-0,019905
616,000000	-0,020084
615,000000	-0,019918
614,000000	-0,019913
613,000000	-0,019777
612,000000	-0,020113
611,000000	-0,019959
610,000000	-0,020013
609,000000	-0,019947
608,000000	-0,020025
607,000000	-0,020079
606,000000	-0,020195
605,000000	-0,020100
604,000000	-0,020050
603,000000	-0,020220
602,000000	-0,020191
601,000000	-0,020162
600,000000	-0,020075
599,000000	-0,020183
598,000000	-0,020316
597,000000	-0,020233
596,000000	-0,020195
595,000000	-0,020183
594,000000	-0,020154
593,000000	-0,019889
592,000000	-0,019901
591,000000	-0,019665
590,000000	-0,019465
589,000000	-0,019017
588,000000	-0,018867
587,000000	-0,018472
586,000000	-0,018043
585,000000	-0,017543
584,000000	-0,017138
583,000000	-0,016753
582,000000	-0,016076
581,000000	-0,015485
580,000000	-0,015037
579,000000	-0,014726
578,000000	-0,013810
577,000000	-0,014075
576,000000	-0,013663
575,000000	-0,013221
574,000000	-0,012820
573,000000	-0,012567
572,000000	-0,012230
571,000000	-0,012040
570,000000	-0,012006
569,000000	-0,011896
568,000000	-0,012255
567,000000	-0,011968
566,000000	-0,011947
565,000000	-0,011680
564,000000	-0,011740
563,000000	-0,011710
562,000000	-0,011795
561,000000	-0,012035
560,000000	-0,011634
559,000000	-0,011702
558,000000	-0,011494
557,000000	-0,011849
556,000000	-0,011600
555,000000	-0,011710
554,000000	-0,011499
553,000000	-0,011761
552,000000	-0,011778
551,000000	-0,011752
550,000000	-0,011625
549,000000	-0,011659
548,000000	-0,011837
547,000000	-0,012225
546,000000	-0,012251
545,000000	-0,012162
544,000000	-0,012107
543,000000	-0,012259
542,000000	-0,012301
541,000000	-0,012441
540,000000	-0,012276
539,000000	-0,012255
538,000000	-0,012356
537,000000	-0,012348
536,000000	-0,012200
535,000000	-0,012474
534,000000	-0,012187
533,000000	-0,012453
532,000000	-0,012483
531,000000	-0,012529
530,000000	-0,012749
529,000000	-0,012521
528,000000	-0,012500
527,000000	-0,012572
526,000000	-0,012411
525,000000	-0,012643
524,000000	-0,012470
523,000000	-0,012588
522,000000	-0,012411
521,000000	-0,012618
520,000000	-0,012749
519,000000	-0,012715
518,000000	-0,012740
517,000000	-0,012774
516,000000	-0,012951
515,000000	-0,013006
514,000000	-0,013212
513,000000	-0,013149
512,000000	-0,013242
511,000000	-0,013225
510,000000	-0,013305
509,000000	-0,013448
508,000000	-0,013545
507,000000	-0,013414
506,000000	-0,013722
505,000000	-0,013646
504,000000	-0,013722
503,000000	-0,013974
502,000000	-0,013852
501,000000	-0,014020
500,000000	-0,014147
499,000000	-0,014395
498,000000	-0,014529
497,000000	-0,014374
496,000000	-0,014659
495,000000	-0,014932
494,000000	-0,014869
493,000000	-0,014886
492,000000	-0,014903
491,000000	-0,015003
490,000000	-0,014970
489,000000	-0,015167
488,000000	-0,015318
487,000000	-0,015335
486,000000	-0,015393
485,000000	-0,015473
484,000000	-0,015682
483,000000	-0,015678
482,000000	-0,015641
481,000000	-0,015661
480,000000	-0,015791
479,000000	-0,015837
478,000000	-0,015812
477,000000	-0,015938
476,000000	-0,015561
475,000000	-0,015737
474,000000	-0,015536
473,000000	-0,015624
472,000000	-0,015573
471,000000	-0,015410
470,000000	-0,014966
469,000000	-0,015007
468,000000	-0,014554
467,000000	-0,014416
466,000000	-0,014563
465,000000	-0,014193
464,000000	-0,014395
463,000000	-0,013789
462,000000	-0,014084
461,000000	-0,013579
460,000000	-0,013385
459,000000	-0,013191
458,000000	-0,012930
457,000000	-0,012829
456,000000	-0,012702
455,000000	-0,012732
454,000000	-0,012517
453,000000	-0,012643
452,000000	-0,012803
451,000000	-0,012508
450,000000	-0,012314
449,000000	-0,011680
448,000000	-0,011972
447,000000	-0,011541
446,000000	-0,011579
445,000000	-0,011702
444,000000	-0,011202
443,000000	-0,011029
442,000000	-0,010652
441,000000	-0,010470
440,000000	-0,010177
439,000000	-0,010054
438,000000	-0,009850
437,000000	-0,009608
436,000000	-0,009850
435,000000	-0,009357
434,000000	-0,009493
433,000000	-0,009234
432,000000	-0,009204
431,000000	-0,009085
430,000000	-0,009056
429,000000	-0,009090
428,000000	-0,009234
427,000000	-0,009119
426,000000	-0,008885
425,000000	-0,008775
424,000000	-0,009221
423,000000	-0,009332
422,000000	-0,009442
421,000000	-0,007385
420,000000	-0,006928
419,000000	-0,007167
418,000000	-0,007142
417,000000	-0,007487
416,000000	-0,007376
415,000000	-0,007436
414,000000	-0,007539
413,000000	-0,007513
412,000000	-0,007842
411,000000	-0,007731
410,000000	-0,007970
409,000000	-0,008080
408,000000	-0,008068
407,000000	-0,007999
406,000000	-0,008106
405,000000	-0,008127
404,000000	-0,008553
403,000000	-0,008498
402,000000	-0,008826
401,000000	-0,008864
400,000000	-0,008779
399,000000	-0,008728
398,000000	-0,008860
397,000000	-0,009026
396,000000	-0,009234
395,000000	-0,009570
394,000000	-0,009366
393,000000	-0,009591
392,000000	-0,009710
391,000000	-0,009685
390,000000	-0,010075
389,000000	-0,009859
388,000000	-0,010376
387,000000	-0,010376
386,000000	-0,010283
385,000000	-0,010325
384,000000	-0,003193
383,000000	-0,075562
382,000000	-0,057655
381,000000	-0,044912
380,000000	-0,039993
379,000000	-0,035177
378,000000	-0,030118
377,000000	-0,028185
376,000000	-0,029372
375,000000	-0,027427
374,000000	-0,024629
373,000000	-0,025265
372,000000	-0,023236
371,000000	-0,023758
370,000000	-0,023783
369,000000	-0,022939
368,000000	-0,022540
367,000000	-0,022164
366,000000	-0,021102
365,000000	-0,022585
364,000000	-0,021136
363,000000	-0,022090
362,000000	-0,021251
361,000000	-0,021743
360,000000	-0,021925
359,000000	-0,021173
358,000000	-0,022952
357,000000	-0,023092
356,000000	-0,020813
355,000000	-0,021599
354,000000	-0,022230
353,000000	-0,023224
352,000000	-0,022255
351,000000	-0,022882
350,000000	-0,023084
