PE UV       SUBTECH     SPECTRUM    ASCII       PEDS        4.00        
   -1
Sample14857.Sample.Raw.asc
20/06/30
16:21:38.00
20/06/30
16:21:38.00
Analyst

390,000000
1
Lambda 25
501s11081509
PerkinElmer UV WinLab 6.0.3.0730 / Lambda25 1.27

480
2
1
0
0
Both on
1
1
1
None
0
0
0
0
 
 
0
0
0
0
0
 
 
 
0
 
0
326
0
 
0
 
 
 
0
0
0
 
0
 
 
 
0
 
 
0
0
0
0
0
 
 
 
 
0
0


#HDR
-1
-1
#GR
nm
A
1.0
0.0
700,000000
-1,000000
311
8
0,017773
0,010421
#DATA
700,000000	0,010456
699,000000	0,010459
698,000000	0,010442
697,000000	0,010625
696,000000	0,010494
695,000000	0,010629
694,000000	0,010421
693,000000	0,010719
692,000000	0,010640
691,000000	0,010648
690,000000	0,010578
689,000000	0,010659
688,000000	0,010636
687,000000	0,010765
686,000000	0,010916
685,000000	0,010668
684,000000	0,010638
683,000000	0,011547
682,000000	0,011900
681,000000	0,011927
680,000000	0,011715
679,000000	0,011680
678,000000	0,011879
677,000000	0,011685
676,000000	0,011586
675,000000	0,011815
674,000000	0,011908
673,000000	0,012005
672,000000	0,012118
671,000000	0,011911
670,000000	0,012128
669,000000	0,011879
668,000000	0,011787
667,000000	0,011619
666,000000	0,012016
665,000000	0,012105
664,000000	0,011996
663,000000	0,011670
662,000000	0,011669
661,000000	0,011628
660,000000	0,011830
659,000000	0,011510
658,000000	0,011634
657,000000	0,011521
656,000000	0,011623
655,000000	0,011529
654,000000	0,011648
653,000000	0,011742
652,000000	0,011759
651,000000	0,011821
650,000000	0,011615
649,000000	0,011747
648,000000	0,011339
647,000000	0,011871
646,000000	0,011914
645,000000	0,011849
644,000000	0,011880
643,000000	0,011706
642,000000	0,011736
641,000000	0,011864
640,000000	0,011760
639,000000	0,011749
638,000000	0,011625
637,000000	0,011688
636,000000	0,011766
635,000000	0,011576
634,000000	0,011358
633,000000	0,011786
632,000000	0,012072
631,000000	0,012113
630,000000	0,011841
629,000000	0,012019
628,000000	0,011768
627,000000	0,011768
626,000000	0,011946
625,000000	0,012060
624,000000	0,012086
623,000000	0,011719
622,000000	0,011900
621,000000	0,011827
620,000000	0,012026
619,000000	0,011777
618,000000	0,011870
617,000000	0,011612
616,000000	0,011730
615,000000	0,011803
614,000000	0,011735
613,000000	0,011658
612,000000	0,012019
611,000000	0,011568
610,000000	0,011766
609,000000	0,011653
608,000000	0,011847
607,000000	0,011918
606,000000	0,011864
605,000000	0,011751
604,000000	0,011591
603,000000	0,011718
602,000000	0,011787
601,000000	0,011652
600,000000	0,011569
599,000000	0,011196
598,000000	0,011733
597,000000	0,011560
596,000000	0,011689
595,000000	0,011787
594,000000	0,011984
593,000000	0,011804
592,000000	0,012055
591,000000	0,011844
590,000000	0,011850
589,000000	0,012054
588,000000	0,012024
587,000000	0,012036
586,000000	0,012108
585,000000	0,011714
584,000000	0,012026
583,000000	0,012200
582,000000	0,011922
581,000000	0,011754
580,000000	0,011986
579,000000	0,012085
578,000000	0,011718
577,000000	0,012337
576,000000	0,012241
575,000000	0,012405
574,000000	0,012447
573,000000	0,012407
572,000000	0,012130
571,000000	0,012283
570,000000	0,012219
569,000000	0,012170
568,000000	0,012820
567,000000	0,012424
566,000000	0,012416
565,000000	0,012350
564,000000	0,012809
563,000000	0,012645
562,000000	0,012612
561,000000	0,013109
560,000000	0,012756
559,000000	0,012741
558,000000	0,012264
557,000000	0,012440
556,000000	0,012048
555,000000	0,012327
554,000000	0,012072
553,000000	0,012060
552,000000	0,012286
551,000000	0,012169
550,000000	0,011912
549,000000	0,012115
548,000000	0,012076
547,000000	0,012399
546,000000	0,012086
545,000000	0,012405
544,000000	0,012059
543,000000	0,011929
542,000000	0,012028
541,000000	0,012341
540,000000	0,011981
539,000000	0,012086
538,000000	0,011970
537,000000	0,011996
536,000000	0,011948
535,000000	0,012171
534,000000	0,012057
533,000000	0,012340
532,000000	0,012357
531,000000	0,012356
530,000000	0,012497
529,000000	0,012482
528,000000	0,012317
527,000000	0,012324
526,000000	0,012133
525,000000	0,012374
524,000000	0,012045
523,000000	0,012345
522,000000	0,012151
521,000000	0,012314
520,000000	0,012406
519,000000	0,012515
518,000000	0,012324
517,000000	0,012509
516,000000	0,012365
515,000000	0,012442
514,000000	0,012496
513,000000	0,012294
512,000000	0,012335
511,000000	0,012331
510,000000	0,012303
509,000000	0,012303
508,000000	0,012508
507,000000	0,012542
506,000000	0,012373
505,000000	0,012488
504,000000	0,012291
503,000000	0,012855
502,000000	0,012599
501,000000	0,012503
500,000000	0,012742
499,000000	0,012990
498,000000	0,012877
497,000000	0,012450
496,000000	0,012817
495,000000	0,013056
494,000000	0,013031
493,000000	0,012828
492,000000	0,013005
491,000000	0,012898
490,000000	0,012920
489,000000	0,012910
488,000000	0,012988
487,000000	0,012931
486,000000	0,012674
485,000000	0,013030
484,000000	0,013244
483,000000	0,013313
482,000000	0,013120
481,000000	0,013210
480,000000	0,013314
479,000000	0,013300
478,000000	0,013404
477,000000	0,013439
476,000000	0,013270
475,000000	0,013592
474,000000	0,013249
473,000000	0,013583
472,000000	0,013550
471,000000	0,013659
470,000000	0,013383
469,000000	0,013503
468,000000	0,013314
467,000000	0,013643
466,000000	0,013838
465,000000	0,013737
464,000000	0,014043
463,000000	0,013728
462,000000	0,014218
461,000000	0,014031
460,000000	0,014228
459,000000	0,014492
458,000000	0,014039
457,000000	0,014526
456,000000	0,014212
455,000000	0,014704
454,000000	0,014571
453,000000	0,014515
452,000000	0,014941
451,000000	0,014947
450,000000	0,014644
449,000000	0,014491
448,000000	0,014896
447,000000	0,014968
446,000000	0,014840
445,000000	0,015391
444,000000	0,015142
443,000000	0,015420
442,000000	0,015442
441,000000	0,015845
440,000000	0,015512
439,000000	0,015746
438,000000	0,015722
437,000000	0,015850
436,000000	0,016471
435,000000	0,016199
434,000000	0,016534
433,000000	0,016451
432,000000	0,016651
431,000000	0,016443
430,000000	0,016701
429,000000	0,016602
428,000000	0,017348
427,000000	0,016862
426,000000	0,016584
425,000000	0,016606
424,000000	0,017397
423,000000	0,017756
422,000000	0,017773
421,000000	0,014284
420,000000	0,013628
419,000000	0,013806
418,000000	0,013661
417,000000	0,014095
416,000000	0,014112
415,000000	0,014229
414,000000	0,014376
413,000000	0,014350
412,000000	0,014595
411,000000	0,014330
410,000000	0,014533
409,000000	0,014662
408,000000	0,014464
407,000000	0,014744
406,000000	0,014652
405,000000	0,014722
404,000000	0,014985
403,000000	0,015018
402,000000	0,015341
401,000000	0,015485
400,000000	0,015612
399,000000	0,015323
398,000000	0,015419
397,000000	0,015845
396,000000	0,015608
395,000000	0,016142
394,000000	0,015806
393,000000	0,015811
392,000000	0,015996
391,000000	0,016310
390,000000	0,016762
