PE UV       SUBTECH     SPECTRUM    ASCII       PEDS        4.00        
   -1
Sample14859.Sample.Raw.asc
20/06/30
16:15:16.00
20/06/30
16:15:16.00
Analyst

350,000000
1
Lambda 25
501s11081509
PerkinElmer UV WinLab 6.0.3.0730 / Lambda25 1.27

480
2
1
0
0
Both on
1
1
1
None
0
0
0
0
 
 
0
0
0
0
0
 
 
 
0
 
0
326
0
 
0
 
 
 
0
0
0
 
0
 
 
 
0
 
 
0
0
0
0
0
 
 
 
 
0
0


#HDR
-1
-1
#GR
nm
A
1.0
0.0
700,000000
-1,000000
351
8
0,103150
0,009145
#DATA
700,000000	0,009411
699,000000	0,009333
698,000000	0,009145
697,000000	0,009478
696,000000	0,009343
695,000000	0,009367
694,000000	0,009361
693,000000	0,009487
692,000000	0,009659
691,000000	0,009545
690,000000	0,009484
689,000000	0,009707
688,000000	0,009360
687,000000	0,009425
686,000000	0,009689
685,000000	0,009587
684,000000	0,009473
683,000000	0,010452
682,000000	0,010089
681,000000	0,010393
680,000000	0,010299
679,000000	0,010339
678,000000	0,010377
677,000000	0,010267
676,000000	0,010468
675,000000	0,010317
674,000000	0,010553
673,000000	0,010531
672,000000	0,010381
671,000000	0,010622
670,000000	0,010568
669,000000	0,010619
668,000000	0,010654
667,000000	0,010401
666,000000	0,010853
665,000000	0,010675
664,000000	0,010565
663,000000	0,010329
662,000000	0,010704
661,000000	0,010603
660,000000	0,010822
659,000000	0,010328
658,000000	0,010697
657,000000	0,010444
656,000000	0,010572
655,000000	0,010440
654,000000	0,010448
653,000000	0,010690
652,000000	0,010466
651,000000	0,010641
650,000000	0,010868
649,000000	0,010695
648,000000	0,010643
647,000000	0,011179
646,000000	0,010963
645,000000	0,010642
644,000000	0,011081
643,000000	0,010763
642,000000	0,010622
641,000000	0,010828
640,000000	0,010744
639,000000	0,010934
638,000000	0,010907
637,000000	0,010710
636,000000	0,011167
635,000000	0,010619
634,000000	0,010618
633,000000	0,010829
632,000000	0,011331
631,000000	0,011105
630,000000	0,011122
629,000000	0,011257
628,000000	0,011104
627,000000	0,011231
626,000000	0,011439
625,000000	0,011285
624,000000	0,011408
623,000000	0,011187
622,000000	0,011377
621,000000	0,011299
620,000000	0,011596
619,000000	0,011342
618,000000	0,011312
617,000000	0,011258
616,000000	0,011462
615,000000	0,011381
614,000000	0,011135
613,000000	0,011108
612,000000	0,011572
611,000000	0,011431
610,000000	0,011511
609,000000	0,011576
608,000000	0,011787
607,000000	0,011547
606,000000	0,011600
605,000000	0,011534
604,000000	0,011535
603,000000	0,011650
602,000000	0,011595
601,000000	0,011613
600,000000	0,011522
599,000000	0,011481
598,000000	0,011613
597,000000	0,011667
596,000000	0,011612
595,000000	0,011642
594,000000	0,011767
593,000000	0,011706
592,000000	0,011868
591,000000	0,011797
590,000000	0,012059
589,000000	0,011909
588,000000	0,012003
587,000000	0,012010
586,000000	0,012108
585,000000	0,011899
584,000000	0,011901
583,000000	0,012062
582,000000	0,011819
581,000000	0,011857
580,000000	0,011982
579,000000	0,012180
578,000000	0,011774
577,000000	0,012406
576,000000	0,012648
575,000000	0,012383
574,000000	0,012256
573,000000	0,012472
572,000000	0,012295
571,000000	0,012265
570,000000	0,012601
569,000000	0,012309
568,000000	0,012794
567,000000	0,012607
566,000000	0,012438
565,000000	0,012472
564,000000	0,012761
563,000000	0,012788
562,000000	0,012725
561,000000	0,013088
560,000000	0,013292
559,000000	0,012972
558,000000	0,012603
557,000000	0,012963
556,000000	0,012831
555,000000	0,012906
554,000000	0,012364
553,000000	0,012826
552,000000	0,012625
551,000000	0,012591
550,000000	0,012713
549,000000	0,012794
548,000000	0,012937
547,000000	0,013095
546,000000	0,013120
545,000000	0,012910
544,000000	0,013181
543,000000	0,012989
542,000000	0,012697
541,000000	0,013049
540,000000	0,012898
539,000000	0,012646
538,000000	0,012886
537,000000	0,013043
536,000000	0,012839
535,000000	0,013179
534,000000	0,013131
533,000000	0,013131
532,000000	0,013113
531,000000	0,013133
530,000000	0,013631
529,000000	0,013521
528,000000	0,013413
527,000000	0,013441
526,000000	0,013359
525,000000	0,013565
524,000000	0,013392
523,000000	0,013375
522,000000	0,013185
521,000000	0,013370
520,000000	0,013549
519,000000	0,013537
518,000000	0,013710
517,000000	0,013587
516,000000	0,013903
515,000000	0,013867
514,000000	0,013969
513,000000	0,013653
512,000000	0,013698
511,000000	0,013455
510,000000	0,013466
509,000000	0,013865
508,000000	0,013675
507,000000	0,013771
506,000000	0,014026
505,000000	0,013928
504,000000	0,013961
503,000000	0,014131
502,000000	0,014043
501,000000	0,013921
500,000000	0,014416
499,000000	0,014481
498,000000	0,014316
497,000000	0,014065
496,000000	0,014130
495,000000	0,014428
494,000000	0,014491
493,000000	0,014447
492,000000	0,014382
491,000000	0,014613
490,000000	0,014271
489,000000	0,014603
488,000000	0,014563
487,000000	0,014614
486,000000	0,014612
485,000000	0,014666
484,000000	0,015049
483,000000	0,014798
482,000000	0,014894
481,000000	0,014724
480,000000	0,015032
479,000000	0,015013
478,000000	0,015218
477,000000	0,015287
476,000000	0,014945
475,000000	0,015324
474,000000	0,014967
473,000000	0,015285
472,000000	0,015413
471,000000	0,015397
470,000000	0,015222
469,000000	0,015555
468,000000	0,015341
467,000000	0,015394
466,000000	0,015724
465,000000	0,015559
464,000000	0,015725
463,000000	0,015508
462,000000	0,015938
461,000000	0,015913
460,000000	0,015972
459,000000	0,016085
458,000000	0,016108
457,000000	0,016273
456,000000	0,016405
455,000000	0,016439
454,000000	0,016325
453,000000	0,016412
452,000000	0,016533
451,000000	0,016930
450,000000	0,016942
449,000000	0,016546
448,000000	0,017263
447,000000	0,017131
446,000000	0,017029
445,000000	0,017402
444,000000	0,017136
443,000000	0,017231
442,000000	0,017361
441,000000	0,017554
440,000000	0,017729
439,000000	0,017898
438,000000	0,017991
437,000000	0,018019
436,000000	0,018394
435,000000	0,018317
434,000000	0,018684
433,000000	0,018678
432,000000	0,018950
431,000000	0,018769
430,000000	0,019037
429,000000	0,018995
428,000000	0,019406
427,000000	0,019331
426,000000	0,019409
425,000000	0,019080
424,000000	0,020034
423,000000	0,020020
422,000000	0,020291
421,000000	0,017935
420,000000	0,017772
419,000000	0,017989
418,000000	0,018057
417,000000	0,018518
416,000000	0,018394
415,000000	0,018610
414,000000	0,018891
413,000000	0,018954
412,000000	0,019069
411,000000	0,019087
410,000000	0,019393
409,000000	0,019152
408,000000	0,019625
407,000000	0,019637
406,000000	0,019757
405,000000	0,019979
404,000000	0,020284
403,000000	0,020126
402,000000	0,020744
401,000000	0,020827
400,000000	0,020764
399,000000	0,021057
398,000000	0,021153
397,000000	0,021190
396,000000	0,021581
395,000000	0,022212
394,000000	0,021798
393,000000	0,022063
392,000000	0,022348
391,000000	0,022456
390,000000	0,023115
389,000000	0,022774
388,000000	0,023099
387,000000	0,023757
386,000000	0,023502
385,000000	0,023849
384,000000	0,015022
383,000000	0,103150
382,000000	0,080549
381,000000	0,067280
380,000000	0,058809
379,000000	0,053563
378,000000	0,048553
377,000000	0,046058
376,000000	0,044966
375,000000	0,044193
374,000000	0,041630
373,000000	0,043460
372,000000	0,040029
371,000000	0,039736
370,000000	0,041200
369,000000	0,040994
368,000000	0,039234
367,000000	0,039558
366,000000	0,038447
365,000000	0,040599
364,000000	0,039833
363,000000	0,039819
362,000000	0,039071
361,000000	0,039983
360,000000	0,039242
359,000000	0,039653
358,000000	0,040373
357,000000	0,040414
356,000000	0,040737
355,000000	0,040142
354,000000	0,041464
353,000000	0,042648
352,000000	0,040690
351,000000	0,042938
350,000000	0,042726
