PE UV       SUBTECH     SPECTRUM    ASCII       PEDS        4.00        
   -1
Sample14861.Sample.Raw.asc
20/06/30
16:05:34.00
20/06/30
16:05:34.00
Analyst

350,000000
1
Lambda 25
501s11081509
PerkinElmer UV WinLab 6.0.3.0730 / Lambda25 1.27

480
2
1
0
0
Both on
1
1
1
None
0
0
0
0
 
 
0
0
0
0
0
 
 
 
0
 
0
326
0
 
0
 
 
 
0
0
0
 
0
 
 
 
0
 
 
0
0
0
0
0
 
 
 
 
0
0


#HDR
-1
-1
#GR
nm
A
1.0
0.0
700,000000
-1,000000
351
8
10,000000
-1,249210
#DATA
700,000000	-1,249210
699,000000	-1,248362
698,000000	-1,248107
697,000000	-1,247822
696,000000	-1,248408
695,000000	-1,248179
694,000000	-1,247353
693,000000	-1,246779
692,000000	-1,247391
691,000000	-1,246293
690,000000	-1,246063
689,000000	-1,247030
688,000000	-1,246455
687,000000	-1,247428
686,000000	-1,248241
685,000000	-1,247274
684,000000	-1,246817
683,000000	-1,247692
682,000000	-1,247314
681,000000	-1,248265
680,000000	-1,247510
679,000000	-1,247774
678,000000	-1,246403
677,000000	-1,248841
676,000000	-1,247094
675,000000	-1,246297
674,000000	-1,244997
673,000000	-1,247992
672,000000	-1,245138
671,000000	-1,246729
670,000000	-1,247144
669,000000	-1,243900
668,000000	-1,242874
667,000000	-1,245212
666,000000	-1,242944
665,000000	-1,245355
664,000000	-1,241271
663,000000	-1,243696
662,000000	-1,244007
661,000000	-1,243515
660,000000	-1,241212
659,000000	-1,243056
658,000000	-1,240144
657,000000	-1,241687
656,000000	-1,240864
655,000000	-1,239928
654,000000	-1,239630
653,000000	-1,238957
652,000000	-1,240445
651,000000	-1,238675
650,000000	-1,239004
649,000000	-1,238281
648,000000	-1,238083
647,000000	-1,235149
646,000000	-1,237254
645,000000	-1,235138
644,000000	-1,234601
643,000000	-1,231357
642,000000	-1,230775
641,000000	-1,230861
640,000000	-1,230075
639,000000	-1,229021
638,000000	-1,229613
637,000000	-1,225882
636,000000	-1,225674
635,000000	-1,224032
634,000000	-1,223720
633,000000	-1,223434
632,000000	-1,222900
631,000000	-1,220542
630,000000	-1,220393
629,000000	-1,219776
628,000000	-1,218400
627,000000	-1,215967
626,000000	-1,213937
625,000000	-1,216737
624,000000	-1,214280
623,000000	-1,215162
622,000000	-1,214822
621,000000	-1,212211
620,000000	-1,212811
619,000000	-1,212519
618,000000	-1,211190
617,000000	-1,210956
616,000000	-1,209688
615,000000	-1,207702
614,000000	-1,208710
613,000000	-1,207929
612,000000	-1,207168
611,000000	-1,204860
610,000000	-1,202302
609,000000	-1,201314
608,000000	-1,200065
607,000000	-1,199980
606,000000	-1,199548
605,000000	-1,196374
604,000000	-1,194420
603,000000	-1,191151
602,000000	-1,191032
601,000000	-1,191099
600,000000	-1,191237
599,000000	-1,188491
598,000000	-1,186725
597,000000	-1,184484
596,000000	-1,179701
595,000000	-1,174909
594,000000	-1,172978
593,000000	-1,169804
592,000000	-1,169498
591,000000	-1,168131
590,000000	-1,167423
589,000000	-1,169471
588,000000	-1,168750
587,000000	-1,168978
586,000000	-1,169155
585,000000	-1,169751
584,000000	-1,168964
583,000000	-1,167405
582,000000	-1,166367
581,000000	-1,167379
580,000000	-1,164614
579,000000	-1,157387
578,000000	-1,158314
577,000000	-1,154729
576,000000	-1,155321
575,000000	-1,152093
574,000000	-1,151822
573,000000	-1,149902
572,000000	-1,146381
571,000000	-1,140777
570,000000	-1,141096
569,000000	-1,141765
568,000000	-1,135985
567,000000	-1,135403
566,000000	-1,131439
565,000000	-1,129075
564,000000	-1,127149
563,000000	-1,124314
562,000000	-1,124733
561,000000	-1,122819
560,000000	-1,125055
559,000000	-1,133917
558,000000	-1,129815
557,000000	-1,126792
556,000000	-1,122648
555,000000	-1,121107
554,000000	-1,120166
553,000000	-1,118315
552,000000	-1,116949
551,000000	-1,112585
550,000000	-1,110328
549,000000	-1,108130
548,000000	-1,104761
547,000000	-1,101744
546,000000	-1,102314
545,000000	-1,097926
544,000000	-1,095927
543,000000	-1,097548
542,000000	-1,092771
541,000000	-1,089810
540,000000	-1,090541
539,000000	-1,085613
538,000000	-1,084517
537,000000	-1,084016
536,000000	-1,081759
535,000000	-1,079120
534,000000	-1,076439
533,000000	-1,077001
532,000000	-1,073004
531,000000	-1,066914
530,000000	-1,068401
529,000000	-1,067266
528,000000	-1,065621
527,000000	-1,067221
526,000000	-1,068012
525,000000	-1,067937
524,000000	-1,070703
523,000000	-1,071379
522,000000	-1,073276
521,000000	-1,069716
520,000000	-1,066676
519,000000	-1,067493
518,000000	-1,067552
517,000000	-1,063447
516,000000	-1,062380
515,000000	-1,059744
514,000000	-1,054969
513,000000	-1,056094
512,000000	-1,054505
511,000000	-1,051069
510,000000	-1,046857
509,000000	-1,045171
508,000000	-1,039113
507,000000	-1,039134
506,000000	-1,034674
505,000000	-1,030234
504,000000	-1,026669
503,000000	-1,023579
502,000000	-1,020180
501,000000	-1,018492
500,000000	-1,016780
499,000000	-1,016222
498,000000	-1,015732
497,000000	-1,014593
496,000000	-1,015885
495,000000	-1,011101
494,000000	-1,009988
493,000000	-1,012646
492,000000	-1,009235
491,000000	-1,008364
490,000000	-1,007576
489,000000	-1,009704
488,000000	-1,010757
487,000000	-1,010406
486,000000	-1,011234
485,000000	-1,007598
484,000000	-1,005999
483,000000	-1,003056
482,000000	-1,005335
481,000000	-1,008219
480,000000	-1,008519
479,000000	-1,008654
478,000000	-1,011424
477,000000	-1,013584
476,000000	-1,016934
475,000000	-1,016296
474,000000	-1,022335
473,000000	-1,027818
472,000000	-1,028511
471,000000	-1,027694
470,000000	-1,029909
469,000000	-1,032543
468,000000	-1,034599
467,000000	-1,029549
466,000000	-1,028532
465,000000	-1,031976
464,000000	-1,031649
463,000000	-1,031390
462,000000	-1,031522
461,000000	-1,034791
460,000000	-1,037667
459,000000	-1,031646
458,000000	-1,033403
457,000000	-1,036277
456,000000	-1,040079
455,000000	-1,041970
454,000000	-1,043665
453,000000	-1,046527
452,000000	-1,041631
451,000000	-1,037794
450,000000	-1,039220
449,000000	-1,049982
448,000000	-1,051243
447,000000	-1,051578
446,000000	-1,056681
445,000000	-1,055159
444,000000	-1,068140
443,000000	-1,051679
442,000000	-1,059477
441,000000	-1,067812
440,000000	-1,068389
439,000000	-1,066326
438,000000	-1,076915
437,000000	-1,079666
436,000000	-1,079194
435,000000	-1,081855
434,000000	-1,086377
433,000000	-1,086876
432,000000	-1,093286
431,000000	-1,088305
430,000000	-1,097010
429,000000	-1,102821
428,000000	-1,106899
427,000000	-1,102551
426,000000	-1,111933
425,000000	-1,109464
424,000000	-1,110219
423,000000	-1,121684
422,000000	-1,129965
421,000000	-1,062716
420,000000	-1,059305
419,000000	-1,057809
418,000000	-1,060218
417,000000	-1,062731
416,000000	-1,065854
415,000000	-1,066705
414,000000	-1,065419
413,000000	-1,071179
412,000000	-1,070390
411,000000	-1,071771
410,000000	-1,073185
409,000000	-1,078883
408,000000	-1,077974
407,000000	-1,079854
406,000000	-1,082678
405,000000	-1,084759
404,000000	-1,090218
403,000000	-1,085880
402,000000	-1,091469
401,000000	-1,092699
400,000000	-1,097701
399,000000	-1,099765
398,000000	-1,098152
397,000000	-1,102922
396,000000	-1,104992
395,000000	-1,104583
394,000000	-1,113721
393,000000	-1,119594
392,000000	-1,124021
391,000000	-1,125970
390,000000	-1,139802
389,000000	-1,152843
388,000000	-1,167870
387,000000	-1,173194
386,000000	-1,184799
385,000000	-1,197868
384,000000	-1,246615
383,000000	-0,012060
382,000000	10,000000
381,000000	10,000000
380,000000	10,000000
379,000000	10,000000
378,000000	10,000000
377,000000	10,000000
376,000000	10,000000
375,000000	10,000000
374,000000	10,000000
373,000000	10,000000
372,000000	10,000000
371,000000	10,000000
370,000000	10,000000
369,000000	10,000000
368,000000	10,000000
367,000000	10,000000
366,000000	10,000000
365,000000	10,000000
364,000000	10,000000
363,000000	10,000000
362,000000	10,000000
361,000000	10,000000
360,000000	10,000000
359,000000	10,000000
358,000000	10,000000
357,000000	10,000000
356,000000	10,000000
355,000000	10,000000
354,000000	10,000000
353,000000	10,000000
352,000000	10,000000
351,000000	10,000000
350,000000	10,000000
