PE UV       SUBTECH     SPECTRUM    ASCII       PEDS        4.00        
   -1
Sample14860.Sample.Raw.asc
20/06/30
16:11:14.00
20/06/30
16:11:14.00
Analyst

350,000000
1
Lambda 25
501s11081509
PerkinElmer UV WinLab 6.0.3.0730 / Lambda25 1.27

480
2
1
0
0
Both on
1
1
1
None
0
0
0
0
 
 
0
0
0
0
0
 
 
 
0
 
0
326
0
 
0
 
 
 
0
0
0
 
0
 
 
 
0
 
 
0
0
0
0
0
 
 
 
 
0
0


#HDR
-1
-1
#GR
nm
A
1.0
0.0
700,000000
-1,000000
351
8
0,334468
0,004284
#DATA
700,000000	0,004490
699,000000	0,004381
698,000000	0,004284
697,000000	0,004614
696,000000	0,004497
695,000000	0,004520
694,000000	0,004591
693,000000	0,004794
692,000000	0,004728
691,000000	0,004680
690,000000	0,004904
689,000000	0,004739
688,000000	0,004499
687,000000	0,004625
686,000000	0,004894
685,000000	0,004703
684,000000	0,004833
683,000000	0,005199
682,000000	0,005468
681,000000	0,005290
680,000000	0,005306
679,000000	0,005211
678,000000	0,005208
677,000000	0,005126
676,000000	0,005325
675,000000	0,005344
674,000000	0,005549
673,000000	0,005263
672,000000	0,005685
671,000000	0,005591
670,000000	0,005696
669,000000	0,005396
668,000000	0,005580
667,000000	0,005428
666,000000	0,005701
665,000000	0,005668
664,000000	0,005476
663,000000	0,005453
662,000000	0,005645
661,000000	0,005455
660,000000	0,005555
659,000000	0,005397
658,000000	0,005857
657,000000	0,005649
656,000000	0,005656
655,000000	0,005381
654,000000	0,005620
653,000000	0,005695
652,000000	0,005811
651,000000	0,005891
650,000000	0,005779
649,000000	0,006153
648,000000	0,005725
647,000000	0,006520
646,000000	0,006367
645,000000	0,005999
644,000000	0,005834
643,000000	0,006026
642,000000	0,005996
641,000000	0,006322
640,000000	0,006260
639,000000	0,006305
638,000000	0,006252
637,000000	0,006023
636,000000	0,006345
635,000000	0,005930
634,000000	0,006028
633,000000	0,006265
632,000000	0,006366
631,000000	0,006735
630,000000	0,006608
629,000000	0,006519
628,000000	0,006635
627,000000	0,006433
626,000000	0,006689
625,000000	0,006625
624,000000	0,006756
623,000000	0,006640
622,000000	0,006656
621,000000	0,006675
620,000000	0,006975
619,000000	0,006798
618,000000	0,006763
617,000000	0,006752
616,000000	0,007014
615,000000	0,007021
614,000000	0,006920
613,000000	0,006762
612,000000	0,007339
611,000000	0,007181
610,000000	0,007252
609,000000	0,007443
608,000000	0,007386
607,000000	0,007820
606,000000	0,007493
605,000000	0,007592
604,000000	0,007521
603,000000	0,007539
602,000000	0,007649
601,000000	0,007494
600,000000	0,007571
599,000000	0,007531
598,000000	0,007917
597,000000	0,007796
596,000000	0,008038
595,000000	0,008038
594,000000	0,008254
593,000000	0,008043
592,000000	0,008174
591,000000	0,008297
590,000000	0,008555
589,000000	0,008369
588,000000	0,008520
587,000000	0,008630
586,000000	0,008486
585,000000	0,008598
584,000000	0,008623
583,000000	0,009014
582,000000	0,008747
581,000000	0,008562
580,000000	0,008892
579,000000	0,009155
578,000000	0,008737
577,000000	0,009474
576,000000	0,009630
575,000000	0,009765
574,000000	0,009804
573,000000	0,009728
572,000000	0,009696
571,000000	0,009835
570,000000	0,010064
569,000000	0,009985
568,000000	0,010729
567,000000	0,010195
566,000000	0,010382
565,000000	0,010206
564,000000	0,010439
563,000000	0,010574
562,000000	0,010966
561,000000	0,011168
560,000000	0,011000
559,000000	0,011072
558,000000	0,010969
557,000000	0,011693
556,000000	0,011309
555,000000	0,011337
554,000000	0,011308
553,000000	0,011487
552,000000	0,011547
551,000000	0,011735
550,000000	0,011712
549,000000	0,011916
548,000000	0,012206
547,000000	0,012756
546,000000	0,012650
545,000000	0,012853
544,000000	0,012998
543,000000	0,012785
542,000000	0,013106
541,000000	0,013154
540,000000	0,013063
539,000000	0,013346
538,000000	0,013644
537,000000	0,013823
536,000000	0,013958
535,000000	0,014202
534,000000	0,014260
533,000000	0,014447
532,000000	0,014525
531,000000	0,015108
530,000000	0,015410
529,000000	0,015226
528,000000	0,015555
527,000000	0,015841
526,000000	0,015742
525,000000	0,016267
524,000000	0,016142
523,000000	0,016559
522,000000	0,016333
521,000000	0,016658
520,000000	0,017135
519,000000	0,017071
518,000000	0,017544
517,000000	0,017512
516,000000	0,017926
515,000000	0,017827
514,000000	0,018258
513,000000	0,018344
512,000000	0,018204
511,000000	0,018279
510,000000	0,018526
509,000000	0,018806
508,000000	0,019017
507,000000	0,019260
506,000000	0,019440
505,000000	0,019531
504,000000	0,019810
503,000000	0,019970
502,000000	0,019707
501,000000	0,019857
500,000000	0,020195
499,000000	0,020491
498,000000	0,020789
497,000000	0,020475
496,000000	0,020950
495,000000	0,021134
494,000000	0,021270
493,000000	0,021278
492,000000	0,021555
491,000000	0,021893
490,000000	0,021626
489,000000	0,022031
488,000000	0,022451
487,000000	0,022737
486,000000	0,022553
485,000000	0,022884
484,000000	0,023023
483,000000	0,023164
482,000000	0,023193
481,000000	0,023541
480,000000	0,023622
479,000000	0,023854
478,000000	0,024010
477,000000	0,024149
476,000000	0,023905
475,000000	0,024329
474,000000	0,024398
473,000000	0,024770
472,000000	0,025057
471,000000	0,025169
470,000000	0,025164
469,000000	0,025451
468,000000	0,025501
467,000000	0,025553
466,000000	0,026106
465,000000	0,026326
464,000000	0,026858
463,000000	0,026525
462,000000	0,027110
461,000000	0,027309
460,000000	0,027635
459,000000	0,028151
458,000000	0,028475
457,000000	0,028991
456,000000	0,029126
455,000000	0,029566
454,000000	0,029834
453,000000	0,030567
452,000000	0,031026
451,000000	0,031456
450,000000	0,032015
449,000000	0,031632
448,000000	0,032642
447,000000	0,033401
446,000000	0,033663
445,000000	0,034422
444,000000	0,034788
443,000000	0,035556
442,000000	0,036163
441,000000	0,036949
440,000000	0,037632
439,000000	0,038588
438,000000	0,039740
437,000000	0,040304
436,000000	0,041610
435,000000	0,042118
434,000000	0,043230
433,000000	0,043934
432,000000	0,045327
431,000000	0,046602
430,000000	0,048076
429,000000	0,049161
428,000000	0,050708
427,000000	0,051890
426,000000	0,052789
425,000000	0,053698
424,000000	0,055365
423,000000	0,056845
422,000000	0,057416
421,000000	0,055557
420,000000	0,055386
419,000000	0,055844
418,000000	0,055566
417,000000	0,056072
416,000000	0,056005
415,000000	0,056108
414,000000	0,056434
413,000000	0,056341
412,000000	0,056854
411,000000	0,056733
410,000000	0,057308
409,000000	0,057867
408,000000	0,058141
407,000000	0,058463
406,000000	0,059004
405,000000	0,059582
404,000000	0,060145
403,000000	0,060809
402,000000	0,061358
401,000000	0,061999
400,000000	0,062140
399,000000	0,062664
398,000000	0,063165
397,000000	0,063478
396,000000	0,063761
395,000000	0,064072
394,000000	0,063892
393,000000	0,064280
392,000000	0,064769
391,000000	0,064024
390,000000	0,064907
389,000000	0,065144
388,000000	0,065489
387,000000	0,065908
386,000000	0,065746
385,000000	0,066169
384,000000	0,057966
383,000000	0,147038
382,000000	0,128180
381,000000	0,114513
380,000000	0,105959
379,000000	0,100472
378,000000	0,095988
377,000000	0,092894
376,000000	0,096447
375,000000	0,094821
374,000000	0,092607
373,000000	0,091757
372,000000	0,093838
371,000000	0,093788
370,000000	0,095854
369,000000	0,095790
368,000000	0,097042
367,000000	0,098009
366,000000	0,098782
365,000000	0,101841
364,000000	0,101195
363,000000	0,104774
362,000000	0,106115
361,000000	0,109330
360,000000	0,112315
359,000000	0,115199
358,000000	0,122973
357,000000	0,129813
356,000000	0,135729
355,000000	0,149238
354,000000	0,166451
353,000000	0,191373
352,000000	0,224967
351,000000	0,270365
350,000000	0,334468
