PE UV       SUBTECH     SPECTRUM    ASCII       PEDS        4.00        
   -1
Sample14856.Sample.Raw.asc
20/06/30
16:22:37.00
20/06/30
16:22:37.00
Analyst

390,000000
1
Lambda 25
501s11081509
PerkinElmer UV WinLab 6.0.3.0730 / Lambda25 1.27

480
2
1
0
0
Both on
1
1
1
None
0
0
0
0
 
 
0
0
0
0
0
 
 
 
0
 
0
326
0
 
0
 
 
 
0
0
0
 
0
 
 
 
0
 
 
0
0
0
0
0
 
 
 
 
0
0


#HDR
-1
-1
#GR
nm
A
1.0
0.0
700,000000
-1,000000
311
8
0,018247
0,008874
#DATA
700,000000	0,008989
699,000000	0,009158
698,000000	0,008874
697,000000	0,009089
696,000000	0,008996
695,000000	0,008974
694,000000	0,009056
693,000000	0,009148
692,000000	0,009336
691,000000	0,009294
690,000000	0,009391
689,000000	0,009342
688,000000	0,009242
687,000000	0,009094
686,000000	0,009224
685,000000	0,009264
684,000000	0,009104
683,000000	0,010077
682,000000	0,010442
681,000000	0,010363
680,000000	0,010152
679,000000	0,010082
678,000000	0,010356
677,000000	0,010318
676,000000	0,010354
675,000000	0,010427
674,000000	0,010764
673,000000	0,010556
672,000000	0,010731
671,000000	0,010554
670,000000	0,010770
669,000000	0,010484
668,000000	0,010383
667,000000	0,010427
666,000000	0,010861
665,000000	0,010620
664,000000	0,010413
663,000000	0,010341
662,000000	0,010344
661,000000	0,010341
660,000000	0,010331
659,000000	0,010353
658,000000	0,010520
657,000000	0,010431
656,000000	0,010560
655,000000	0,010457
654,000000	0,010448
653,000000	0,010407
652,000000	0,010491
651,000000	0,010527
650,000000	0,010317
649,000000	0,010639
648,000000	0,010529
647,000000	0,010975
646,000000	0,010967
645,000000	0,010570
644,000000	0,010644
643,000000	0,010631
642,000000	0,010665
641,000000	0,010577
640,000000	0,010821
639,000000	0,010959
638,000000	0,010652
637,000000	0,010536
636,000000	0,010941
635,000000	0,010691
634,000000	0,010448
633,000000	0,010821
632,000000	0,010961
631,000000	0,011015
630,000000	0,011011
629,000000	0,011180
628,000000	0,010981
627,000000	0,011044
626,000000	0,011341
625,000000	0,011208
624,000000	0,011234
623,000000	0,010889
622,000000	0,011172
621,000000	0,010737
620,000000	0,011327
619,000000	0,010981
618,000000	0,011065
617,000000	0,011148
616,000000	0,011228
615,000000	0,011151
614,000000	0,010905
613,000000	0,010878
612,000000	0,011389
611,000000	0,010976
610,000000	0,011153
609,000000	0,011278
608,000000	0,011310
607,000000	0,011492
606,000000	0,011472
605,000000	0,011398
604,000000	0,011105
603,000000	0,011275
602,000000	0,011059
601,000000	0,011247
600,000000	0,011194
599,000000	0,011221
598,000000	0,011396
597,000000	0,011369
596,000000	0,011302
595,000000	0,011289
594,000000	0,011622
593,000000	0,011365
592,000000	0,011556
591,000000	0,011601
590,000000	0,011641
589,000000	0,011614
588,000000	0,011845
587,000000	0,011877
586,000000	0,011624
585,000000	0,011547
584,000000	0,011717
583,000000	0,011878
582,000000	0,011746
581,000000	0,011779
580,000000	0,011779
579,000000	0,012081
578,000000	0,011748
577,000000	0,012272
576,000000	0,012085
575,000000	0,012119
574,000000	0,012287
573,000000	0,012099
572,000000	0,012121
571,000000	0,012057
570,000000	0,012436
569,000000	0,012400
568,000000	0,012589
567,000000	0,012615
566,000000	0,012703
565,000000	0,012319
564,000000	0,012539
563,000000	0,012323
562,000000	0,012486
561,000000	0,013031
560,000000	0,012847
559,000000	0,012449
558,000000	0,012172
557,000000	0,012593
556,000000	0,012182
555,000000	0,012140
554,000000	0,012194
553,000000	0,012352
552,000000	0,012308
551,000000	0,012226
550,000000	0,012103
549,000000	0,012098
548,000000	0,011993
547,000000	0,012534
546,000000	0,012333
545,000000	0,012314
544,000000	0,012390
543,000000	0,012442
542,000000	0,012358
541,000000	0,012623
540,000000	0,012263
539,000000	0,012225
538,000000	0,012508
537,000000	0,012139
536,000000	0,012300
535,000000	0,012448
534,000000	0,012279
533,000000	0,012718
532,000000	0,012857
531,000000	0,012607
530,000000	0,012862
529,000000	0,012473
528,000000	0,012687
527,000000	0,012793
526,000000	0,012815
525,000000	0,012921
524,000000	0,012870
523,000000	0,012979
522,000000	0,012737
521,000000	0,012718
520,000000	0,012844
519,000000	0,012750
518,000000	0,012910
517,000000	0,012726
516,000000	0,012860
515,000000	0,012906
514,000000	0,013117
513,000000	0,013071
512,000000	0,013038
511,000000	0,012878
510,000000	0,012615
509,000000	0,012841
508,000000	0,013085
507,000000	0,012950
506,000000	0,013279
505,000000	0,013186
504,000000	0,013353
503,000000	0,013336
502,000000	0,013097
501,000000	0,013300
500,000000	0,012932
499,000000	0,013146
498,000000	0,013089
497,000000	0,013194
496,000000	0,013259
495,000000	0,013666
494,000000	0,013438
493,000000	0,013507
492,000000	0,013333
491,000000	0,013443
490,000000	0,013197
489,000000	0,013437
488,000000	0,013372
487,000000	0,013320
486,000000	0,013417
485,000000	0,013596
484,000000	0,013754
483,000000	0,013750
482,000000	0,013742
481,000000	0,013707
480,000000	0,013997
479,000000	0,013680
478,000000	0,013854
477,000000	0,014243
476,000000	0,013788
475,000000	0,013990
474,000000	0,013694
473,000000	0,014076
472,000000	0,013996
471,000000	0,014161
470,000000	0,013842
469,000000	0,014339
468,000000	0,013999
467,000000	0,014172
466,000000	0,014328
465,000000	0,014519
464,000000	0,014803
463,000000	0,014480
462,000000	0,014818
461,000000	0,014709
460,000000	0,014999
459,000000	0,014849
458,000000	0,014762
457,000000	0,014844
456,000000	0,015084
455,000000	0,015608
454,000000	0,015349
453,000000	0,015607
452,000000	0,015426
451,000000	0,015730
450,000000	0,015584
449,000000	0,015156
448,000000	0,015890
447,000000	0,015748
446,000000	0,015926
445,000000	0,016422
444,000000	0,015892
443,000000	0,016052
442,000000	0,016058
441,000000	0,016188
440,000000	0,016084
439,000000	0,016790
438,000000	0,016811
437,000000	0,016913
436,000000	0,017244
435,000000	0,016804
434,000000	0,016988
433,000000	0,017017
432,000000	0,017057
431,000000	0,017208
430,000000	0,017413
429,000000	0,017611
428,000000	0,017632
427,000000	0,017641
426,000000	0,017438
425,000000	0,017234
424,000000	0,017672
423,000000	0,018106
422,000000	0,018247
421,000000	0,014933
420,000000	0,014609
419,000000	0,014468
418,000000	0,014509
417,000000	0,014925
416,000000	0,014571
415,000000	0,014945
414,000000	0,015131
413,000000	0,014787
412,000000	0,015288
411,000000	0,015332
410,000000	0,014944
409,000000	0,015439
408,000000	0,015368
407,000000	0,014991
406,000000	0,015354
405,000000	0,015256
404,000000	0,015797
403,000000	0,015626
402,000000	0,016016
401,000000	0,016134
400,000000	0,016217
399,000000	0,016121
398,000000	0,016222
397,000000	0,016216
396,000000	0,016341
395,000000	0,016570
394,000000	0,016137
393,000000	0,016614
392,000000	0,016613
391,000000	0,016919
390,000000	0,017393
