PE UV       SUBTECH     SPECTRUM    ASCII       PEDS        4.00        
   -1
Sample14858.Sample.Raw.asc
20/06/30
16:16:55.00
20/06/30
16:16:55.00
Analyst

350,000000
1
Lambda 25
501s11081509
PerkinElmer UV WinLab 6.0.3.0730 / Lambda25 1.27

480
2
1
0
0
Both on
1
1
1
None
0
0
0
0
 
 
0
0
0
0
0
 
 
 
0
 
0
326
0
 
0
 
 
 
0
0
0
 
0
 
 
 
0
 
 
0
0
0
0
0
 
 
 
 
0
0


#HDR
-1
-1
#GR
nm
A
1.0
0.0
700,000000
-1,000000
351
8
0,091917
0,008278
#DATA
700,000000	0,008585
699,000000	0,008377
698,000000	0,008339
697,000000	0,008580
696,000000	0,008486
695,000000	0,008406
694,000000	0,008445
693,000000	0,008592
692,000000	0,008772
691,000000	0,008750
690,000000	0,008638
689,000000	0,008576
688,000000	0,008434
687,000000	0,008663
686,000000	0,008838
685,000000	0,008518
684,000000	0,008576
683,000000	0,008843
682,000000	0,009161
681,000000	0,008965
680,000000	0,009151
679,000000	0,009271
678,000000	0,009217
677,000000	0,009338
676,000000	0,009105
675,000000	0,009517
674,000000	0,009500
673,000000	0,009314
672,000000	0,009345
671,000000	0,009446
670,000000	0,009691
669,000000	0,009480
668,000000	0,009489
667,000000	0,009519
666,000000	0,009641
665,000000	0,009506
664,000000	0,009484
663,000000	0,009252
662,000000	0,009542
661,000000	0,009403
660,000000	0,009588
659,000000	0,009284
658,000000	0,009611
657,000000	0,009455
656,000000	0,009705
655,000000	0,009455
654,000000	0,009510
653,000000	0,009392
652,000000	0,009602
651,000000	0,009591
650,000000	0,009703
649,000000	0,009497
648,000000	0,009592
647,000000	0,009946
646,000000	0,009984
645,000000	0,009540
644,000000	0,009686
643,000000	0,009563
642,000000	0,009499
641,000000	0,009666
640,000000	0,009566
639,000000	0,009683
638,000000	0,009643
637,000000	0,009557
636,000000	0,009839
635,000000	0,009304
634,000000	0,009358
633,000000	0,009645
632,000000	0,009680
631,000000	0,010035
630,000000	0,009928
629,000000	0,010059
628,000000	0,009982
627,000000	0,009804
626,000000	0,010134
625,000000	0,009993
624,000000	0,010180
623,000000	0,009908
622,000000	0,009944
621,000000	0,010032
620,000000	0,010121
619,000000	0,010037
618,000000	0,010091
617,000000	0,010030
616,000000	0,010267
615,000000	0,010076
614,000000	0,010008
613,000000	0,009829
612,000000	0,010415
611,000000	0,010075
610,000000	0,010205
609,000000	0,010245
608,000000	0,010443
607,000000	0,010442
606,000000	0,010294
605,000000	0,010195
604,000000	0,010187
603,000000	0,010281
602,000000	0,010303
601,000000	0,010125
600,000000	0,010302
599,000000	0,010210
598,000000	0,010325
597,000000	0,010255
596,000000	0,010142
595,000000	0,010431
594,000000	0,010550
593,000000	0,010659
592,000000	0,010505
591,000000	0,010592
590,000000	0,010656
589,000000	0,010365
588,000000	0,010556
587,000000	0,010707
586,000000	0,010688
585,000000	0,010538
584,000000	0,010402
583,000000	0,010647
582,000000	0,010531
581,000000	0,010356
580,000000	0,010556
579,000000	0,010779
578,000000	0,010496
577,000000	0,011192
576,000000	0,010810
575,000000	0,010821
574,000000	0,010931
573,000000	0,010730
572,000000	0,010786
571,000000	0,010947
570,000000	0,011238
569,000000	0,010959
568,000000	0,011110
567,000000	0,011000
566,000000	0,010966
565,000000	0,010852
564,000000	0,011175
563,000000	0,011072
562,000000	0,011222
561,000000	0,011467
560,000000	0,011534
559,000000	0,011194
558,000000	0,011043
557,000000	0,011172
556,000000	0,010927
555,000000	0,010998
554,000000	0,010930
553,000000	0,011027
552,000000	0,011118
551,000000	0,010967
550,000000	0,010948
549,000000	0,010813
548,000000	0,010817
547,000000	0,011414
546,000000	0,011340
545,000000	0,011338
544,000000	0,011235
543,000000	0,011028
542,000000	0,011065
541,000000	0,011452
540,000000	0,011066
539,000000	0,011119
538,000000	0,011133
537,000000	0,011051
536,000000	0,011042
535,000000	0,011130
534,000000	0,011185
533,000000	0,011534
532,000000	0,011503
531,000000	0,011432
530,000000	0,011634
529,000000	0,011458
528,000000	0,011550
527,000000	0,011912
526,000000	0,011275
525,000000	0,011568
524,000000	0,011477
523,000000	0,011578
522,000000	0,011266
521,000000	0,011317
520,000000	0,011383
519,000000	0,011622
518,000000	0,011686
517,000000	0,011555
516,000000	0,011910
515,000000	0,011766
514,000000	0,011929
513,000000	0,011805
512,000000	0,011534
511,000000	0,011474
510,000000	0,011511
509,000000	0,011524
508,000000	0,011872
507,000000	0,011724
506,000000	0,011893
505,000000	0,011947
504,000000	0,011915
503,000000	0,012150
502,000000	0,011963
501,000000	0,012170
500,000000	0,011946
499,000000	0,011991
498,000000	0,012480
497,000000	0,011948
496,000000	0,012152
495,000000	0,012524
494,000000	0,012388
493,000000	0,012305
492,000000	0,012158
491,000000	0,012259
490,000000	0,012027
489,000000	0,012336
488,000000	0,012258
487,000000	0,012193
486,000000	0,012536
485,000000	0,012551
484,000000	0,012498
483,000000	0,012476
482,000000	0,012378
481,000000	0,012619
480,000000	0,012559
479,000000	0,012489
478,000000	0,012697
477,000000	0,013029
476,000000	0,012557
475,000000	0,012647
474,000000	0,012610
473,000000	0,012750
472,000000	0,012833
471,000000	0,012670
470,000000	0,012622
469,000000	0,013040
468,000000	0,012725
467,000000	0,012915
466,000000	0,013088
465,000000	0,012827
464,000000	0,013288
463,000000	0,012739
462,000000	0,013233
461,000000	0,013296
460,000000	0,012947
459,000000	0,013452
458,000000	0,013538
457,000000	0,013276
456,000000	0,013459
455,000000	0,013340
454,000000	0,013451
453,000000	0,013748
452,000000	0,013669
451,000000	0,013896
450,000000	0,013719
449,000000	0,013369
448,000000	0,013704
447,000000	0,013805
446,000000	0,013765
445,000000	0,014372
444,000000	0,014013
443,000000	0,013647
442,000000	0,014013
441,000000	0,014291
440,000000	0,014042
439,000000	0,014208
438,000000	0,014610
437,000000	0,014293
436,000000	0,015177
435,000000	0,014662
434,000000	0,014662
433,000000	0,014609
432,000000	0,014553
431,000000	0,014949
430,000000	0,014892
429,000000	0,014627
428,000000	0,015185
427,000000	0,015168
426,000000	0,014740
425,000000	0,014713
424,000000	0,015336
423,000000	0,015433
422,000000	0,015759
421,000000	0,013949
420,000000	0,013381
419,000000	0,013383
418,000000	0,013243
417,000000	0,013412
416,000000	0,013513
415,000000	0,013630
414,000000	0,013829
413,000000	0,013760
412,000000	0,014150
411,000000	0,013893
410,000000	0,013899
409,000000	0,014041
408,000000	0,013882
407,000000	0,013946
406,000000	0,014004
405,000000	0,014052
404,000000	0,014650
403,000000	0,014410
402,000000	0,014799
401,000000	0,014591
400,000000	0,014559
399,000000	0,014266
398,000000	0,014688
397,000000	0,014920
396,000000	0,015001
395,000000	0,015482
394,000000	0,015317
393,000000	0,015173
392,000000	0,015384
391,000000	0,015372
390,000000	0,015666
389,000000	0,015308
388,000000	0,015967
387,000000	0,015782
386,000000	0,015566
385,000000	0,015973
384,000000	0,008278
383,000000	0,091917
382,000000	0,074710
381,000000	0,058534
380,000000	0,052273
379,000000	0,045817
378,000000	0,039819
377,000000	0,037668
376,000000	0,038332
375,000000	0,036640
374,000000	0,033926
373,000000	0,035104
372,000000	0,032471
371,000000	0,033540
370,000000	0,033023
369,000000	0,032334
368,000000	0,031651
367,000000	0,031342
366,000000	0,029549
365,000000	0,031851
364,000000	0,031779
363,000000	0,031671
362,000000	0,031530
361,000000	0,030362
360,000000	0,031195
359,000000	0,030750
358,000000	0,031376
357,000000	0,034230
356,000000	0,030203
355,000000	0,031073
354,000000	0,031448
353,000000	0,033956
352,000000	0,032174
351,000000	0,032983
350,000000	0,033536
