PE UV       SUBTECH     SPECTRUM    ASCII       PEDS        4.00        
   -1
100% or 0 Absorbance Baseline.Correction.Raw.asc
20/08/21
16:02:02.00
20/08/21
16:02:02.00
Analyst

390,000000
1
Lambda 25
501s11081509
PerkinElmer UV WinLab 6.0.3.0730 / Lambda25 1.27

480
0
1
0
0
Both on
0
1
1
None
0
0
0
0
 
 
0
0
0
0
0
 
 
 
0
 
0
326
0
 
0
 
 
 
0
0
0
 
0
 
 
 
0
 
 
0
0
0
0
0
 
 
 
 
0
0


#HDR
-1
-1
#GR
nm
A
1.0
0.0
700,000000
-1,000000
311
8
-0,006928
-0,025920
#DATA
700,000000	-0,025920
699,000000	-0,025801
698,000000	-0,025629
697,000000	-0,025564
696,000000	-0,025339
695,000000	-0,025101
694,000000	-0,024941
693,000000	-0,024916
692,000000	-0,024650
691,000000	-0,024687
690,000000	-0,024633
689,000000	-0,024461
688,000000	-0,024350
687,000000	-0,024128
686,000000	-0,023993
685,000000	-0,023738
684,000000	-0,023512
683,000000	-0,023446
682,000000	-0,023215
681,000000	-0,023108
680,000000	-0,022964
679,000000	-0,022985
678,000000	-0,022828
677,000000	-0,022721
676,000000	-0,022630
675,000000	-0,022527
674,000000	-0,022416
673,000000	-0,022255
672,000000	-0,022234
671,000000	-0,022045
670,000000	-0,022028
669,000000	-0,022069
668,000000	-0,021822
667,000000	-0,021528
666,000000	-0,021375
665,000000	-0,021570
664,000000	-0,021375
663,000000	-0,021421
662,000000	-0,021470
661,000000	-0,021483
660,000000	-0,021396
659,000000	-0,021156
658,000000	-0,020933
657,000000	-0,020780
656,000000	-0,020635
655,000000	-0,021090
654,000000	-0,020854
653,000000	-0,020883
652,000000	-0,020912
651,000000	-0,020809
650,000000	-0,020568
649,000000	-0,020465
648,000000	-0,020631
647,000000	-0,020113
646,000000	-0,020071
645,000000	-0,020237
644,000000	-0,020125
643,000000	-0,020059
642,000000	-0,020092
641,000000	-0,020055
640,000000	-0,019905
639,000000	-0,019860
638,000000	-0,019743
637,000000	-0,019913
636,000000	-0,019739
635,000000	-0,019822
634,000000	-0,019731
633,000000	-0,019714
632,000000	-0,019586
631,000000	-0,019606
630,000000	-0,019366
629,000000	-0,019278
628,000000	-0,019353
627,000000	-0,019374
626,000000	-0,019366
625,000000	-0,019361
624,000000	-0,019046
623,000000	-0,019403
622,000000	-0,019457
621,000000	-0,019428
620,000000	-0,019374
619,000000	-0,019336
618,000000	-0,019100
617,000000	-0,019033
616,000000	-0,019079
615,000000	-0,019079
614,000000	-0,019050
613,000000	-0,019179
612,000000	-0,019145
611,000000	-0,019141
610,000000	-0,019204
609,000000	-0,018896
608,000000	-0,019046
607,000000	-0,018917
606,000000	-0,018854
605,000000	-0,019166
604,000000	-0,019104
603,000000	-0,019361
602,000000	-0,019390
601,000000	-0,019291
600,000000	-0,019204
599,000000	-0,019253
598,000000	-0,019195
597,000000	-0,019158
596,000000	-0,019220
595,000000	-0,019361
594,000000	-0,019075
593,000000	-0,019058
592,000000	-0,018846
591,000000	-0,018784
590,000000	-0,018584
589,000000	-0,018189
588,000000	-0,017868
587,000000	-0,017659
586,000000	-0,017351
585,000000	-0,016774
584,000000	-0,016427
583,000000	-0,015875
582,000000	-0,015339
581,000000	-0,014701
580,000000	-0,014462
579,000000	-0,013894
578,000000	-0,013389
577,000000	-0,013242
576,000000	-0,012833
575,000000	-0,012436
574,000000	-0,012415
573,000000	-0,012318
572,000000	-0,012145
571,000000	-0,011875
570,000000	-0,011761
569,000000	-0,011702
568,000000	-0,011511
567,000000	-0,011422
566,000000	-0,011067
565,000000	-0,011181
564,000000	-0,010936
563,000000	-0,011008
562,000000	-0,011118
561,000000	-0,010991
560,000000	-0,010775
559,000000	-0,011025
558,000000	-0,011283
557,000000	-0,010965
556,000000	-0,011177
555,000000	-0,011016
554,000000	-0,011325
553,000000	-0,011528
552,000000	-0,011444
551,000000	-0,011431
550,000000	-0,011494
549,000000	-0,011575
548,000000	-0,011393
547,000000	-0,011723
546,000000	-0,011630
545,000000	-0,011634
544,000000	-0,011625
543,000000	-0,011435
542,000000	-0,011579
541,000000	-0,011490
540,000000	-0,011765
539,000000	-0,011824
538,000000	-0,011900
537,000000	-0,011997
536,000000	-0,012099
535,000000	-0,012221
534,000000	-0,012027
533,000000	-0,011980
532,000000	-0,012073
531,000000	-0,011904
530,000000	-0,012069
529,000000	-0,011871
528,000000	-0,011879
527,000000	-0,011989
526,000000	-0,012289
525,000000	-0,012356
524,000000	-0,012162
523,000000	-0,012310
522,000000	-0,012356
521,000000	-0,012415
520,000000	-0,012390
519,000000	-0,012293
518,000000	-0,012234
517,000000	-0,012432
516,000000	-0,012225
515,000000	-0,012373
514,000000	-0,012217
513,000000	-0,012479
512,000000	-0,012656
511,000000	-0,012905
510,000000	-0,012905
509,000000	-0,012959
508,000000	-0,013040
507,000000	-0,013086
506,000000	-0,013406
505,000000	-0,013242
504,000000	-0,013452
503,000000	-0,013351
502,000000	-0,013701
501,000000	-0,013638
500,000000	-0,013583
499,000000	-0,013755
498,000000	-0,013936
497,000000	-0,013781
496,000000	-0,014151
495,000000	-0,014193
494,000000	-0,014201
493,000000	-0,014205
492,000000	-0,014470
491,000000	-0,014327
490,000000	-0,014647
489,000000	-0,014588
488,000000	-0,014558
487,000000	-0,014609
486,000000	-0,014659
485,000000	-0,014739
484,000000	-0,014831
483,000000	-0,014840
482,000000	-0,014953
481,000000	-0,015117
480,000000	-0,015192
479,000000	-0,014873
478,000000	-0,014945
477,000000	-0,015024
476,000000	-0,014781
475,000000	-0,014705
474,000000	-0,014722
473,000000	-0,014781
472,000000	-0,014739
471,000000	-0,014655
470,000000	-0,014445
469,000000	-0,014193
468,000000	-0,013953
467,000000	-0,013898
466,000000	-0,013494
465,000000	-0,013541
464,000000	-0,013195
463,000000	-0,013002
462,000000	-0,012723
461,000000	-0,012635
460,000000	-0,012555
459,000000	-0,012268
458,000000	-0,012035
457,000000	-0,011752
456,000000	-0,011744
455,000000	-0,011697
454,000000	-0,011782
453,000000	-0,011718
452,000000	-0,011604
451,000000	-0,011537
450,000000	-0,011486
449,000000	-0,011219
448,000000	-0,010931
447,000000	-0,010737
446,000000	-0,010533
445,000000	-0,010703
444,000000	-0,010037
443,000000	-0,009956
442,000000	-0,009876
441,000000	-0,009659
440,000000	-0,009417
439,000000	-0,009056
438,000000	-0,008690
437,000000	-0,008596
436,000000	-0,008115
435,000000	-0,007970
434,000000	-0,008187
433,000000	-0,008106
432,000000	-0,008004
431,000000	-0,007863
430,000000	-0,007624
429,000000	-0,007735
428,000000	-0,007662
427,000000	-0,007500
426,000000	-0,007466
425,000000	-0,007394
424,000000	-0,007295
423,000000	-0,007505
422,000000	-0,007539
421,000000	-0,006928
420,000000	-0,007060
419,000000	-0,007052
418,000000	-0,007095
417,000000	-0,007304
416,000000	-0,007483
415,000000	-0,007394
414,000000	-0,007534
413,000000	-0,007492
412,000000	-0,007658
411,000000	-0,007722
410,000000	-0,007697
409,000000	-0,007701
408,000000	-0,007854
407,000000	-0,008008
406,000000	-0,008029
405,000000	-0,008157
404,000000	-0,008200
403,000000	-0,008404
402,000000	-0,008481
401,000000	-0,008536
400,000000	-0,008741
399,000000	-0,008553
398,000000	-0,008724
397,000000	-0,008762
396,000000	-0,009115
395,000000	-0,009281
394,000000	-0,009141
393,000000	-0,009285
392,000000	-0,009502
391,000000	-0,009260
390,000000	-0,009408
