PE UV       SUBTECH     SPECTRUM    ASCII       PEDS        4.00        
   -1
1_100-2900.Sample.Raw.asc
20/10/06
16:28:30.00
20/10/06
16:28:30.00
Analyst

390,000000
1
Lambda 25
501s11081509
PerkinElmer UV WinLab 6.0.3.0730 / Lambda25 1.27

480
2
1
0
0
Both on
1
1
1
None
0
0
0
0
 
 
0
0
0
0
0
 
 
 
0
 
0
326
0
 
0
 
 
 
0
0
0
 
0
 
 
 
0
 
 
0
0
0
0
0
 
 
 
 
0
0


#HDR
-1
-1
#GR
nm
A
1.0
0.0
700,000000
-1,000000
311
8
0,025335
-0,000054
#DATA
700,000000	0,000020
699,000000	0,000369
698,000000	0,000336
697,000000	0,000168
696,000000	0,000070
695,000000	0,000324
694,000000	0,000177
693,000000	0,000440
692,000000	0,000202
691,000000	0,000152
690,000000	0,000259
689,000000	0,000284
688,000000	0,000284
687,000000	0,000263
686,000000	0,000280
685,000000	-0,000012
684,000000	0,000544
683,000000	0,000301
682,000000	0,000235
681,000000	0,000470
680,000000	0,000326
679,000000	0,000223
678,000000	0,000173
677,000000	0,000078
676,000000	0,000132
675,000000	-0,000033
674,000000	0,000182
673,000000	0,000558
672,000000	0,000384
671,000000	0,000244
670,000000	0,000595
669,000000	0,000488
668,000000	0,000563
667,000000	0,000236
666,000000	0,000679
665,000000	0,000435
664,000000	0,000368
663,000000	0,000422
662,000000	0,000464
661,000000	0,000381
660,000000	0,000120
659,000000	0,000365
658,000000	0,000128
657,000000	0,000265
656,000000	0,000435
655,000000	0,000493
654,000000	0,000456
653,000000	0,000514
652,000000	0,000182
651,000000	0,000112
650,000000	0,000174
649,000000	-0,000054
648,000000	0,000373
647,000000	0,000228
646,000000	0,000261
645,000000	0,000519
644,000000	0,000548
643,000000	0,000548
642,000000	0,000614
641,000000	0,000661
640,000000	0,000100
639,000000	0,000532
638,000000	0,000270
637,000000	0,000366
636,000000	0,000382
635,000000	0,000324
634,000000	0,000324
633,000000	0,000387
632,000000	0,000499
631,000000	0,000357
630,000000	0,000345
629,000000	0,000357
628,000000	0,000790
627,000000	0,000407
626,000000	0,000378
625,000000	0,000678
624,000000	0,000395
623,000000	0,000308
622,000000	0,000304
621,000000	0,000266
620,000000	0,000470
619,000000	0,000407
618,000000	0,000545
617,000000	0,000545
616,000000	0,000528
615,000000	0,000366
614,000000	0,000374
613,000000	0,000333
612,000000	0,000262
611,000000	0,000607
610,000000	0,000004
609,000000	0,000416
608,000000	0,000291
607,000000	0,000308
606,000000	0,000607
605,000000	0,000254
604,000000	0,000291
603,000000	0,000420
602,000000	0,000386
601,000000	0,000399
600,000000	0,000549
599,000000	0,000470
598,000000	0,000362
597,000000	0,000478
596,000000	0,000557
595,000000	0,000736
594,000000	0,000453
593,000000	0,000877
592,000000	0,000894
591,000000	0,000578
590,000000	0,000699
589,000000	0,000412
588,000000	0,000776
587,000000	0,000505
586,000000	0,000501
585,000000	0,000711
584,000000	0,000460
583,000000	0,000754
582,000000	0,000658
581,000000	0,000739
580,000000	0,000517
579,000000	0,000795
578,000000	0,000687
577,000000	0,000759
576,000000	0,000975
575,000000	0,001060
574,000000	0,000968
573,000000	0,000550
572,000000	0,000681
571,000000	0,000474
570,000000	0,000779
569,000000	0,000923
568,000000	0,001127
567,000000	0,001381
566,000000	0,001225
565,000000	0,001039
564,000000	0,000636
563,000000	0,001234
562,000000	0,001047
561,000000	0,000738
560,000000	0,000437
559,000000	0,000872
558,000000	0,000856
557,000000	0,000669
556,000000	0,000746
555,000000	0,000432
554,000000	0,000220
553,000000	0,000758
552,000000	0,000572
551,000000	0,000724
550,000000	0,000407
549,000000	0,000360
548,000000	0,000576
547,000000	0,000567
546,000000	0,000690
545,000000	0,000943
544,000000	0,000630
543,000000	0,000846
542,000000	0,000643
541,000000	0,000486
540,000000	0,000740
539,000000	0,000707
538,000000	0,000609
537,000000	0,000660
536,000000	0,000757
535,000000	0,000825
534,000000	0,000710
533,000000	0,000859
532,000000	0,001125
531,000000	0,001096
530,000000	0,000740
529,000000	0,000643
528,000000	0,000660
527,000000	0,000884
526,000000	0,000875
525,000000	0,000698
524,000000	0,000757
523,000000	0,000748
522,000000	0,000723
521,000000	0,000659
520,000000	0,000905
519,000000	0,000896
518,000000	0,000689
517,000000	0,001069
516,000000	0,000685
515,000000	0,000832
514,000000	0,000993
513,000000	0,001149
512,000000	0,000963
511,000000	0,000937
510,000000	0,000865
509,000000	0,001212
508,000000	0,001080
507,000000	0,000966
506,000000	0,001047
505,000000	0,001316
504,000000	0,001451
503,000000	0,001451
502,000000	0,001265
501,000000	0,001345
500,000000	0,001361
499,000000	0,001386
498,000000	0,001373
497,000000	0,001285
496,000000	0,001554
495,000000	0,001596
494,000000	0,001322
493,000000	0,001389
492,000000	0,001419
491,000000	0,001334
490,000000	0,002124
489,000000	0,001776
488,000000	0,001695
487,000000	0,001602
486,000000	0,001556
485,000000	0,001485
484,000000	0,001724
483,000000	0,001560
482,000000	0,001467
481,000000	0,001941
480,000000	0,001874
479,000000	0,002105
478,000000	0,001521
477,000000	0,002128
476,000000	0,001741
475,000000	0,001640
474,000000	0,001821
473,000000	0,001753
472,000000	0,001930
471,000000	0,002470
470,000000	0,002054
469,000000	0,002097
468,000000	0,001917
467,000000	0,002044
466,000000	0,002227
465,000000	0,002062
464,000000	0,001692
463,000000	0,001950
462,000000	0,002518
461,000000	0,001873
460,000000	0,002225
459,000000	0,002513
458,000000	0,002235
457,000000	0,002067
456,000000	0,002283
455,000000	0,002335
454,000000	0,001949
453,000000	0,002195
452,000000	0,002239
451,000000	0,002497
450,000000	0,002661
449,000000	0,002805
448,000000	0,002527
447,000000	0,002783
446,000000	0,002819
445,000000	0,002246
444,000000	0,002794
443,000000	0,003090
442,000000	0,003089
441,000000	0,003027
440,000000	0,003136
439,000000	0,002710
438,000000	0,003025
437,000000	0,003262
436,000000	0,003437
435,000000	0,002647
434,000000	0,002918
433,000000	0,003571
432,000000	0,002838
431,000000	0,003345
430,000000	0,003564
429,000000	0,003262
428,000000	0,003408
427,000000	0,003247
426,000000	0,003940
425,000000	0,004162
424,000000	0,003358
423,000000	0,003998
422,000000	0,004021
421,000000	0,004044
420,000000	0,004612
419,000000	0,004569
418,000000	0,004581
417,000000	0,005072
416,000000	0,005423
415,000000	0,005484
414,000000	0,005629
413,000000	0,005868
412,000000	0,005988
411,000000	0,006254
410,000000	0,006556
409,000000	0,007128
408,000000	0,007137
407,000000	0,007654
406,000000	0,007947
405,000000	0,008305
404,000000	0,008983
403,000000	0,009630
402,000000	0,009828
401,000000	0,010816
400,000000	0,011575
399,000000	0,012438
398,000000	0,013823
397,000000	0,014567
396,000000	0,015472
395,000000	0,016705
394,000000	0,017928
393,000000	0,019817
392,000000	0,021374
391,000000	0,022988
390,000000	0,025335
