PE UV       SUBTECH     SPECTRUM    ASCII       PEDS        4.00        
   -1
44_100-2900.Sample.Raw.asc
20/10/06
16:35:26.00
20/10/06
16:35:26.00
Analyst

390,000000
1
Lambda 25
501s11081509
PerkinElmer UV WinLab 6.0.3.0730 / Lambda25 1.27

480
2
1
0
0
Both on
1
1
1
None
0
0
0
0
 
 
0
0
0
0
0
 
 
 
0
 
0
326
0
 
0
 
 
 
0
0
0
 
0
 
 
 
0
 
 
0
0
0
0
0
 
 
 
 
0
0


#HDR
-1
-1
#GR
nm
A
1.0
0.0
700,000000
-1,000000
311
8
0,003127
-0,000342
#DATA
700,000000	0,000123
699,000000	0,000152
698,000000	0,000189
697,000000	0,000066
696,000000	0,000033
695,000000	0,000156
694,000000	-0,000049
693,000000	0,000427
692,000000	-0,000255
691,000000	0,000156
690,000000	0,000193
689,000000	0,000329
688,000000	0,000346
687,000000	-0,000016
686,000000	-0,000033
685,000000	-0,000156
684,000000	0,000330
683,000000	0,000185
682,000000	-0,000021
681,000000	0,000099
680,000000	-0,000078
679,000000	0,000041
678,000000	-0,000017
677,000000	-0,000342
676,000000	0,000037
675,000000	-0,000330
674,000000	-0,000091
673,000000	0,000417
672,000000	0,000434
671,000000	0,000256
670,000000	0,000207
669,000000	0,000041
668,000000	0,000368
667,000000	0,000319
666,000000	0,000588
665,000000	0,000207
664,000000	0,000203
663,000000	0,000240
662,000000	0,000253
661,000000	0,000050
660,000000	0,000091
659,000000	0,000112
658,000000	0,000025
657,000000	-0,000087
656,000000	0,000058
655,000000	0,000037
654,000000	0,000220
653,000000	0,000361
652,000000	0,000116
651,000000	-0,000079
650,000000	-0,000091
649,000000	-0,000129
648,000000	0,000037
647,000000	0,000091
646,000000	0,000071
645,000000	0,000008
644,000000	0,000261
643,000000	0,000286
642,000000	0,000386
641,000000	0,000062
640,000000	0,000000
639,000000	0,000091
638,000000	0,000262
637,000000	0,000062
636,000000	0,000204
635,000000	-0,000087
634,000000	0,000000
633,000000	0,000216
632,000000	0,000262
631,000000	0,000150
630,000000	0,000287
629,000000	0,000216
628,000000	0,000440
627,000000	0,000150
626,000000	0,000403
625,000000	0,000378
624,000000	0,000262
623,000000	0,000108
622,000000	0,000191
621,000000	0,000208
620,000000	0,000249
619,000000	0,000337
618,000000	0,000357
617,000000	0,000220
616,000000	0,000474
615,000000	-0,000237
614,000000	0,000154
613,000000	0,000220
612,000000	0,000017
611,000000	0,000312
610,000000	-0,000021
609,000000	0,000145
608,000000	0,000050
607,000000	0,000079
606,000000	0,000175
605,000000	0,000183
604,000000	-0,000145
603,000000	0,000029
602,000000	0,000017
601,000000	0,000104
600,000000	0,000312
599,000000	0,000104
598,000000	0,000295
597,000000	0,000154
596,000000	0,000241
595,000000	0,000366
594,000000	0,000000
593,000000	0,000665
592,000000	0,000349
591,000000	0,000391
590,000000	0,000320
589,000000	0,000125
588,000000	0,000117
587,000000	0,000075
586,000000	0,000117
585,000000	0,000096
584,000000	-0,000088
583,000000	0,000260
582,000000	0,000264
581,000000	0,000193
580,000000	0,000395
579,000000	0,000395
578,000000	0,000434
577,000000	0,000367
576,000000	0,000506
575,000000	0,000329
574,000000	0,000418
573,000000	0,000139
572,000000	0,000258
571,000000	0,000300
570,000000	0,000466
569,000000	0,000673
568,000000	0,000678
567,000000	0,000758
566,000000	0,000275
565,000000	0,000089
564,000000	0,000297
563,000000	0,000470
562,000000	0,000034
561,000000	0,000398
560,000000	0,000076
559,000000	0,000381
558,000000	0,000462
557,000000	0,000144
556,000000	0,000165
555,000000	0,000021
554,000000	-0,000208
553,000000	0,000322
552,000000	-0,000008
551,000000	-0,000080
550,000000	-0,000207
549,000000	-0,000051
548,000000	0,000106
547,000000	0,000157
546,000000	0,000355
545,000000	0,000224
544,000000	0,000330
543,000000	0,000406
542,000000	0,000241
541,000000	0,000055
540,000000	-0,000008
539,000000	0,000161
538,000000	0,000190
537,000000	0,000275
536,000000	0,000156
535,000000	0,000216
534,000000	0,000364
533,000000	0,000051
532,000000	0,000330
531,000000	0,000224
530,000000	0,000325
529,000000	0,000059
528,000000	-0,000042
527,000000	0,000177
526,000000	0,000148
525,000000	-0,000215
524,000000	0,000330
523,000000	0,000059
522,000000	-0,000165
521,000000	0,000114
520,000000	0,000000
519,000000	0,000350
518,000000	0,000068
517,000000	0,000384
516,000000	-0,000135
515,000000	-0,000038
514,000000	0,000072
513,000000	-0,000131
512,000000	-0,000046
511,000000	0,000240
510,000000	0,000494
509,000000	0,000223
508,000000	0,000266
507,000000	0,000181
506,000000	0,000173
505,000000	0,000556
504,000000	0,000569
503,000000	0,000476
502,000000	0,000337
501,000000	0,000345
500,000000	0,000244
499,000000	0,000358
498,000000	0,000593
497,000000	0,000244
496,000000	0,000555
495,000000	0,000551
494,000000	0,000395
493,000000	0,000534
492,000000	0,000202
491,000000	0,000572
490,000000	0,000954
489,000000	0,000487
488,000000	0,000702
487,000000	0,000714
486,000000	0,000680
485,000000	0,000370
484,000000	0,000756
483,000000	0,000344
482,000000	0,000559
481,000000	0,000755
480,000000	0,000840
479,000000	0,000965
478,000000	0,000500
477,000000	0,001067
476,000000	0,000567
475,000000	0,000664
474,000000	0,000819
473,000000	0,000819
472,000000	0,001041
471,000000	0,001159
470,000000	0,000895
469,000000	0,001056
468,000000	0,000779
467,000000	0,001015
466,000000	0,000868
465,000000	0,000914
464,000000	0,000902
463,000000	0,000856
462,000000	0,001143
461,000000	0,000692
460,000000	0,001018
459,000000	0,001280
458,000000	0,001137
457,000000	0,000871
456,000000	0,001222
455,000000	0,001274
454,000000	0,001122
453,000000	0,001181
452,000000	0,001097
451,000000	0,001024
450,000000	0,001224
449,000000	0,001326
448,000000	0,001302
447,000000	0,001549
446,000000	0,001482
445,000000	0,001160
444,000000	0,001742
443,000000	0,001572
442,000000	0,001535
441,000000	0,001541
440,000000	0,001559
439,000000	0,001880
438,000000	0,001608
437,000000	0,001844
436,000000	0,001621
435,000000	0,001619
434,000000	0,001538
433,000000	0,001949
432,000000	0,001543
431,000000	0,001629
430,000000	0,001701
429,000000	0,001463
428,000000	0,002003
427,000000	0,001882
426,000000	0,001775
425,000000	0,001954
424,000000	0,001215
423,000000	0,001549
422,000000	0,001009
421,000000	0,001863
420,000000	0,002059
419,000000	0,001884
418,000000	0,001977
417,000000	0,002024
416,000000	0,002336
415,000000	0,002203
414,000000	0,002215
413,000000	0,002066
412,000000	0,001907
411,000000	0,002412
410,000000	0,002279
409,000000	0,002432
408,000000	0,002326
407,000000	0,002376
406,000000	0,002389
405,000000	0,002222
404,000000	0,002341
403,000000	0,002618
402,000000	0,001870
401,000000	0,002361
400,000000	0,002549
399,000000	0,002434
398,000000	0,002641
397,000000	0,002834
396,000000	0,002454
395,000000	0,003127
394,000000	0,002717
393,000000	0,002891
392,000000	0,002626
391,000000	0,002776
390,000000	0,002843
