nm	Abs
700.000000	0.049515
699.000000	0.049739
698.000000	0.049851
697.000000	0.050043
696.000000	0.049971
695.000000	0.050378
694.000000	0.050369
693.000000	0.050461
692.000000	0.050721
691.000000	0.050794
690.000000	0.050970
689.000000	0.051243
688.000000	0.051610
687.000000	0.051715
686.000000	0.051811
685.000000	0.051850
684.000000	0.052091
683.000000	0.052203
682.000000	0.052631
681.000000	0.052828
680.000000	0.052711
679.000000	0.052982
678.000000	0.053127
677.000000	0.053475
676.000000	0.053647
675.000000	0.054027
674.000000	0.054096
673.000000	0.054250
672.000000	0.054523
671.000000	0.054744
670.000000	0.055165
669.000000	0.055157
668.000000	0.055463
667.000000	0.055961
666.000000	0.055555
665.000000	0.055770
664.000000	0.056220
663.000000	0.056236
662.000000	0.056353
661.000000	0.056677
660.000000	0.057085
659.000000	0.057385
658.000000	0.057297
657.000000	0.057720
656.000000	0.057833
655.000000	0.057926
654.000000	0.058322
653.000000	0.058494
652.000000	0.058700
651.000000	0.059002
650.000000	0.059074
649.000000	0.059341
648.000000	0.059633
647.000000	0.059862
646.000000	0.060165
645.000000	0.060360
644.000000	0.060493
643.000000	0.060829
642.000000	0.061129
641.000000	0.061458
640.000000	0.061746
639.000000	0.061852
638.000000	0.061976
637.000000	0.062287
636.000000	0.062434
635.000000	0.062973
634.000000	0.063012
633.000000	0.063691
632.000000	0.063985
631.000000	0.064096
630.000000	0.064608
629.000000	0.064775
628.000000	0.065131
627.000000	0.065420
626.000000	0.065432
625.000000	0.065884
624.000000	0.066087
623.000000	0.066276
622.000000	0.066738
621.000000	0.067105
620.000000	0.067447
619.000000	0.067611
618.000000	0.067981
617.000000	0.068211
616.000000	0.068825
615.000000	0.069144
614.000000	0.069199
613.000000	0.069848
612.000000	0.069956
611.000000	0.070278
610.000000	0.070457
609.000000	0.071020
608.000000	0.071303
607.000000	0.071741
606.000000	0.072057
605.000000	0.072324
604.000000	0.072792
603.000000	0.073228
602.000000	0.073232
601.000000	0.073753
600.000000	0.074252
599.000000	0.074857
598.000000	0.075072
597.000000	0.075506
596.000000	0.075882
595.000000	0.076287
594.000000	0.076450
593.000000	0.076965
592.000000	0.077323
591.000000	0.077735
590.000000	0.078379
589.000000	0.078316
588.000000	0.078832
587.000000	0.079401
586.000000	0.079785
585.000000	0.079974
584.000000	0.080470
583.000000	0.080915
582.000000	0.081145
581.000000	0.081810
580.000000	0.082535
579.000000	0.082704
578.000000	0.082860
577.000000	0.083348
576.000000	0.084189
575.000000	0.084295
574.000000	0.084972
573.000000	0.085062
572.000000	0.085515
571.000000	0.086151
570.000000	0.086800
569.000000	0.087574
568.000000	0.087764
567.000000	0.088163
566.000000	0.088661
565.000000	0.088921
564.000000	0.089591
563.000000	0.090233
562.000000	0.090992
561.000000	0.090920
560.000000	0.090977
559.000000	0.092771
558.000000	0.092504
557.000000	0.093416
556.000000	0.093743
555.000000	0.094259
554.000000	0.094620
553.000000	0.095197
552.000000	0.095775
551.000000	0.096279
550.000000	0.096849
549.000000	0.097192
548.000000	0.098031
547.000000	0.098323
546.000000	0.098551
545.000000	0.099161
544.000000	0.099632
543.000000	0.100035
542.000000	0.100528
541.000000	0.101057
540.000000	0.101793
539.000000	0.101696
538.000000	0.102578
537.000000	0.102954
536.000000	0.103470
535.000000	0.103821
534.000000	0.104659
533.000000	0.104867
532.000000	0.105763
531.000000	0.105971
530.000000	0.106252
529.000000	0.107353
528.000000	0.107716
527.000000	0.108068
526.000000	0.109005
525.000000	0.109408
524.000000	0.110192
523.000000	0.110185
522.000000	0.111012
521.000000	0.111702
520.000000	0.112033
519.000000	0.112784
518.000000	0.113502
517.000000	0.114234
516.000000	0.114878
515.000000	0.115634
514.000000	0.116416
513.000000	0.116910
512.000000	0.117608
511.000000	0.118642
510.000000	0.119169
509.000000	0.119745
508.000000	0.120617
507.000000	0.121301
506.000000	0.122239
505.000000	0.123089
504.000000	0.124000
503.000000	0.124561
502.000000	0.125603
501.000000	0.126453
500.000000	0.127370
499.000000	0.128513
498.000000	0.129185
497.000000	0.130215
496.000000	0.131222
495.000000	0.132124
494.000000	0.133281
493.000000	0.134208
492.000000	0.135441
491.000000	0.136342
490.000000	0.137540
489.000000	0.138629
488.000000	0.139803
487.000000	0.141231
486.000000	0.141846
485.000000	0.143223
484.000000	0.144119
483.000000	0.145650
482.000000	0.146650
481.000000	0.147831
480.000000	0.149122
479.000000	0.150018
478.000000	0.151428
477.000000	0.152085
476.000000	0.153401
475.000000	0.154910
474.000000	0.155689
473.000000	0.156795
472.000000	0.158002
471.000000	0.158827
470.000000	0.160196
469.000000	0.160827
468.000000	0.162009
467.000000	0.162972
466.000000	0.164143
465.000000	0.165069
464.000000	0.165979
463.000000	0.167383
462.000000	0.168460
461.000000	0.168971
460.000000	0.170257
459.000000	0.171506
458.000000	0.172828
457.000000	0.174621
456.000000	0.175931
455.000000	0.177446
454.000000	0.178585
453.000000	0.179932
452.000000	0.181949
451.000000	0.183116
450.000000	0.185317
449.000000	0.187253
448.000000	0.189430
447.000000	0.191457
446.000000	0.193246
445.000000	0.195225
444.000000	0.197163
443.000000	0.200140
442.000000	0.202184
441.000000	0.204451
440.000000	0.207596
439.000000	0.210591
438.000000	0.213859
437.000000	0.216407
436.000000	0.219837
435.000000	0.222567
434.000000	0.225716
433.000000	0.229122
432.000000	0.233227
431.000000	0.237790
430.000000	0.241773
429.000000	0.245768
428.000000	0.249454
427.000000	0.253611
426.000000	0.257266
425.000000	0.260949
424.000000	0.264881
423.000000	0.268027
422.000000	0.272486
421.000000	0.273763
420.000000	0.277821
419.000000	0.282058
418.000000	0.285624
417.000000	0.289022
416.000000	0.292945
415.000000	0.297067
414.000000	0.301137
413.000000	0.305046
412.000000	0.309406
411.000000	0.313442
410.000000	0.318044
409.000000	0.322630
408.000000	0.327505
407.000000	0.332000
406.000000	0.337550
405.000000	0.342655
404.000000	0.347553
403.000000	0.353139
402.000000	0.359237
401.000000	0.365222
400.000000	0.372075
399.000000	0.379188
398.000000	0.385403
397.000000	0.392064
396.000000	0.399875
395.000000	0.407509
394.000000	0.415934
393.000000	0.424589
392.000000	0.433212
391.000000	0.442996
390.000000	0.452028
