nm	Abs
700.000000	0.025819
699.000000	0.025831
698.000000	0.025880
697.000000	0.026023
696.000000	0.026067
695.000000	0.026314
694.000000	0.026118
693.000000	0.026141
692.000000	0.026207
691.000000	0.026373
690.000000	0.026276
689.000000	0.026526
688.000000	0.026642
687.000000	0.026720
686.000000	0.026676
685.000000	0.026742
684.000000	0.026572
683.000000	0.026953
682.000000	0.027053
681.000000	0.027063
680.000000	0.026905
679.000000	0.027112
678.000000	0.026953
677.000000	0.027481
676.000000	0.027512
675.000000	0.027450
674.000000	0.027534
673.000000	0.027759
672.000000	0.027781
671.000000	0.027786
670.000000	0.027956
669.000000	0.028012
668.000000	0.028008
667.000000	0.028398
666.000000	0.028138
665.000000	0.027775
664.000000	0.028261
663.000000	0.028022
662.000000	0.028467
661.000000	0.028072
660.000000	0.028724
659.000000	0.028480
658.000000	0.028546
657.000000	0.028525
656.000000	0.028834
655.000000	0.028654
654.000000	0.028705
653.000000	0.028829
652.000000	0.028943
651.000000	0.028976
650.000000	0.029018
649.000000	0.029161
648.000000	0.029310
647.000000	0.029299
646.000000	0.029414
645.000000	0.029310
644.000000	0.029396
643.000000	0.029350
642.000000	0.029461
641.000000	0.029792
640.000000	0.029950
639.000000	0.029724
638.000000	0.029874
637.000000	0.030072
636.000000	0.029891
635.000000	0.030319
634.000000	0.030146
633.000000	0.030572
632.000000	0.030305
631.000000	0.030312
630.000000	0.030720
629.000000	0.030709
628.000000	0.030922
627.000000	0.030892
626.000000	0.030956
625.000000	0.031185
624.000000	0.031196
623.000000	0.031203
622.000000	0.031345
621.000000	0.031257
620.000000	0.031416
619.000000	0.031494
618.000000	0.031514
617.000000	0.031582
616.000000	0.032171
615.000000	0.031946
614.000000	0.032098
613.000000	0.032175
612.000000	0.032227
611.000000	0.032377
610.000000	0.032398
609.000000	0.032344
608.000000	0.032299
607.000000	0.032677
606.000000	0.032619
605.000000	0.032618
604.000000	0.032900
603.000000	0.033077
602.000000	0.032769
601.000000	0.032903
600.000000	0.033139
599.000000	0.033389
598.000000	0.033368
597.000000	0.033589
596.000000	0.033622
595.000000	0.033564
594.000000	0.033745
593.000000	0.033848
592.000000	0.033818
591.000000	0.034213
590.000000	0.034150
589.000000	0.034202
588.000000	0.034372
587.000000	0.034456
586.000000	0.034395
585.000000	0.034754
584.000000	0.034657
583.000000	0.034866
582.000000	0.034767
581.000000	0.034943
580.000000	0.035008
579.000000	0.035092
578.000000	0.035174
577.000000	0.035271
576.000000	0.035627
575.000000	0.035321
574.000000	0.035861
573.000000	0.035634
572.000000	0.035920
571.000000	0.035902
570.000000	0.036251
569.000000	0.036403
568.000000	0.036265
567.000000	0.036691
566.000000	0.036859
565.000000	0.036545
564.000000	0.037131
563.000000	0.037175
562.000000	0.037530
561.000000	0.037176
560.000000	0.037232
559.000000	0.037856
558.000000	0.037709
557.000000	0.038065
556.000000	0.038117
555.000000	0.038152
554.000000	0.038313
553.000000	0.038348
552.000000	0.038773
551.000000	0.038798
550.000000	0.038970
549.000000	0.039064
548.000000	0.039524
547.000000	0.039400
546.000000	0.039798
545.000000	0.039531
544.000000	0.039896
543.000000	0.039823
542.000000	0.040171
541.000000	0.040349
540.000000	0.040310
539.000000	0.040239
538.000000	0.040677
537.000000	0.040682
536.000000	0.040965
535.000000	0.041063
534.000000	0.041210
533.000000	0.041162
532.000000	0.041480
531.000000	0.041597
530.000000	0.041736
529.000000	0.042110
528.000000	0.041984
527.000000	0.042267
526.000000	0.042623
525.000000	0.042393
524.000000	0.042916
523.000000	0.042595
522.000000	0.043078
521.000000	0.043137
520.000000	0.043068
519.000000	0.043275
518.000000	0.043732
517.000000	0.044005
516.000000	0.043971
515.000000	0.044097
514.000000	0.044325
513.000000	0.044412
512.000000	0.044765
511.000000	0.045054
510.000000	0.045044
509.000000	0.045271
508.000000	0.045498
507.000000	0.045288
506.000000	0.045582
505.000000	0.046036
504.000000	0.046057
503.000000	0.046413
502.000000	0.046674
501.000000	0.046878
500.000000	0.046934
499.000000	0.047237
498.000000	0.047339
497.000000	0.047594
496.000000	0.047857
495.000000	0.047873
494.000000	0.048031
493.000000	0.048141
492.000000	0.048438
491.000000	0.048862
490.000000	0.049015
489.000000	0.049119
488.000000	0.049407
487.000000	0.049606
486.000000	0.049734
485.000000	0.049972
484.000000	0.050138
483.000000	0.050587
482.000000	0.050757
481.000000	0.050834
480.000000	0.051385
479.000000	0.051442
478.000000	0.052232
477.000000	0.052010
476.000000	0.052188
475.000000	0.052738
474.000000	0.052954
473.000000	0.053357
472.000000	0.053418
471.000000	0.053593
470.000000	0.054115
469.000000	0.054283
468.000000	0.054593
467.000000	0.054971
466.000000	0.055457
465.000000	0.055711
464.000000	0.055972
463.000000	0.056633
462.000000	0.056790
461.000000	0.057231
460.000000	0.057709
459.000000	0.058226
458.000000	0.058415
457.000000	0.059830
456.000000	0.060092
455.000000	0.061158
454.000000	0.061227
453.000000	0.061866
452.000000	0.062938
451.000000	0.063057
450.000000	0.064246
449.000000	0.065227
448.000000	0.066417
447.000000	0.067397
446.000000	0.068411
445.000000	0.069599
444.000000	0.070879
443.000000	0.072881
442.000000	0.074628
441.000000	0.076437
440.000000	0.079238
439.000000	0.082083
438.000000	0.086036
437.000000	0.090354
436.000000	0.095430
435.000000	0.100912
434.000000	0.107328
433.000000	0.115888
432.000000	0.126279
431.000000	0.138208
430.000000	0.153852
429.000000	0.170214
428.000000	0.189070
427.000000	0.211656
426.000000	0.236292
425.000000	0.260895
424.000000	0.292127
423.000000	0.326033
422.000000	0.363699
421.000000	0.398774
420.000000	0.444218
419.000000	0.493728
418.000000	0.547829
417.000000	0.599445
416.000000	0.655697
415.000000	0.718345
414.000000	0.782330
413.000000	0.848516
412.000000	0.916504
411.000000	0.984725
410.000000	1.052152
409.000000	1.116201
408.000000	1.174920
407.000000	1.225457
406.000000	1.268339
405.000000	1.303598
404.000000	1.333120
403.000000	1.354524
402.000000	1.363472
401.000000	1.374638
400.000000	1.382626
399.000000	1.383973
398.000000	1.384298
397.000000	1.384027
396.000000	1.379107
395.000000	1.378477
394.000000	1.378232
393.000000	1.373768
392.000000	1.371571
391.000000	1.367534
390.000000	1.364658
