nm	Abs
700.000000	0.157377
699.000000	0.157896
698.000000	0.158539
697.000000	0.158981
696.000000	0.159566
695.000000	0.160347
694.000000	0.160579
693.000000	0.161079
692.000000	0.161802
691.000000	0.162156
690.000000	0.162601
689.000000	0.163376
688.000000	0.163846
687.000000	0.164451
686.000000	0.164904
685.000000	0.165641
684.000000	0.166088
683.000000	0.167506
682.000000	0.167803
681.000000	0.168477
680.000000	0.168899
679.000000	0.169949
678.000000	0.170543
677.000000	0.171256
676.000000	0.171980
675.000000	0.172658
674.000000	0.173042
673.000000	0.173749
672.000000	0.174602
671.000000	0.175205
670.000000	0.176236
669.000000	0.176866
668.000000	0.177442
667.000000	0.178128
666.000000	0.178928
665.000000	0.179235
664.000000	0.180174
663.000000	0.180857
662.000000	0.181520
661.000000	0.182078
660.000000	0.182876
659.000000	0.183387
658.000000	0.183853
657.000000	0.184550
656.000000	0.185760
655.000000	0.186108
654.000000	0.186729
653.000000	0.187607
652.000000	0.188404
651.000000	0.188961
650.000000	0.189849
649.000000	0.190607
648.000000	0.191482
647.000000	0.192080
646.000000	0.192731
645.000000	0.193569
644.000000	0.194461
643.000000	0.194957
642.000000	0.196056
641.000000	0.196826
640.000000	0.197684
639.000000	0.198110
638.000000	0.199178
637.000000	0.200137
636.000000	0.200710
635.000000	0.201670
634.000000	0.202144
633.000000	0.203482
632.000000	0.204648
631.000000	0.205167
630.000000	0.206237
629.000000	0.206949
628.000000	0.207944
627.000000	0.208641
626.000000	0.209223
625.000000	0.210052
624.000000	0.210973
623.000000	0.211813
622.000000	0.212914
621.000000	0.213806
620.000000	0.214627
619.000000	0.215317
618.000000	0.216271
617.000000	0.216875
616.000000	0.217792
615.000000	0.218846
614.000000	0.219737
613.000000	0.220635
612.000000	0.221222
611.000000	0.222339
610.000000	0.223109
609.000000	0.224266
608.000000	0.225220
607.000000	0.226035
606.000000	0.226834
605.000000	0.227522
604.000000	0.228585
603.000000	0.229593
602.000000	0.230341
601.000000	0.231491
600.000000	0.232215
599.000000	0.233322
598.000000	0.234021
597.000000	0.234978
596.000000	0.235823
595.000000	0.236749
594.000000	0.237487
593.000000	0.238400
592.000000	0.239326
591.000000	0.240264
590.000000	0.241498
589.000000	0.241943
588.000000	0.242809
587.000000	0.243455
586.000000	0.244608
585.000000	0.245116
584.000000	0.246156
583.000000	0.247190
582.000000	0.247643
581.000000	0.248821
580.000000	0.249620
579.000000	0.250495
578.000000	0.251234
577.000000	0.252302
576.000000	0.253496
575.000000	0.254018
574.000000	0.254810
573.000000	0.255625
572.000000	0.256277
571.000000	0.257480
570.000000	0.258296
569.000000	0.259137
568.000000	0.259819
567.000000	0.260881
566.000000	0.261763
565.000000	0.262391
564.000000	0.263428
563.000000	0.264332
562.000000	0.264880
561.000000	0.265529
560.000000	0.266277
559.000000	0.268768
558.000000	0.269382
557.000000	0.270584
556.000000	0.271238
555.000000	0.271957
554.000000	0.272910
553.000000	0.273517
552.000000	0.274566
551.000000	0.275473
550.000000	0.276219
549.000000	0.276827
548.000000	0.277721
547.000000	0.278503
546.000000	0.279200
545.000000	0.279862
544.000000	0.280761
543.000000	0.281762
542.000000	0.282662
541.000000	0.283267
540.000000	0.284208
539.000000	0.283943
538.000000	0.285235
537.000000	0.285475
536.000000	0.286325
535.000000	0.287332
534.000000	0.288012
533.000000	0.288442
532.000000	0.289461
531.000000	0.290135
530.000000	0.290811
529.000000	0.291962
528.000000	0.292309
527.000000	0.292981
526.000000	0.293693
525.000000	0.294423
524.000000	0.295220
523.000000	0.295405
522.000000	0.296381
521.000000	0.297180
520.000000	0.297568
519.000000	0.297983
518.000000	0.298849
517.000000	0.299758
516.000000	0.300326
515.000000	0.300769
514.000000	0.301786
513.000000	0.302390
512.000000	0.303046
511.000000	0.303821
510.000000	0.304347
509.000000	0.305082
508.000000	0.305639
507.000000	0.306032
506.000000	0.306867
505.000000	0.307704
504.000000	0.308811
503.000000	0.309032
502.000000	0.309754
501.000000	0.310799
500.000000	0.311018
499.000000	0.312094
498.000000	0.312841
497.000000	0.313450
496.000000	0.314193
495.000000	0.315254
494.000000	0.316098
493.000000	0.316746
492.000000	0.317903
491.000000	0.318895
490.000000	0.319588
489.000000	0.320544
488.000000	0.321792
487.000000	0.322958
486.000000	0.324102
485.000000	0.325504
484.000000	0.326878
483.000000	0.328304
482.000000	0.329893
481.000000	0.331595
480.000000	0.333579
479.000000	0.335918
478.000000	0.338015
477.000000	0.340373
476.000000	0.343536
475.000000	0.346777
474.000000	0.349950
473.000000	0.354017
472.000000	0.358425
471.000000	0.362924
470.000000	0.368995
469.000000	0.375254
468.000000	0.382565
467.000000	0.391057
466.000000	0.401631
465.000000	0.412866
464.000000	0.425750
463.000000	0.441494
462.000000	0.460193
461.000000	0.480248
460.000000	0.505337
459.000000	0.535758
458.000000	0.573374
457.000000	0.616022
456.000000	0.666372
455.000000	0.719139
454.000000	0.783496
453.000000	0.856146
452.000000	0.940544
451.000000	1.038046
450.000000	1.153275
449.000000	1.295671
448.000000	1.431795
447.000000	1.581419
446.000000	1.700653
445.000000	1.818554
444.000000	1.888542
443.000000	1.943483
442.000000	1.953963
441.000000	1.975963
440.000000	1.991749
439.000000	2.001824
438.000000	1.996844
437.000000	2.003535
436.000000	1.994598
435.000000	2.007889
434.000000	1.988185
433.000000	2.001277
432.000000	2.004816
431.000000	1.991730
430.000000	2.007335
429.000000	2.002817
428.000000	2.020063
427.000000	2.013478
426.000000	2.006908
425.000000	2.022630
424.000000	2.028616
423.000000	2.025981
422.000000	2.039162
421.000000	1.752226
420.000000	1.760086
419.000000	1.755137
418.000000	1.750444
417.000000	1.756250
416.000000	1.755427
415.000000	1.748790
414.000000	1.748944
413.000000	1.747442
412.000000	1.741623
411.000000	1.737875
410.000000	1.738101
409.000000	1.732825
408.000000	1.737791
407.000000	1.730535
406.000000	1.727046
405.000000	1.726634
404.000000	1.725231
403.000000	1.717458
402.000000	1.717551
401.000000	1.714788
400.000000	1.710011
399.000000	1.714745
398.000000	1.707209
397.000000	1.707464
396.000000	1.700990
395.000000	1.687089
394.000000	1.689636
393.000000	1.688991
392.000000	1.677121
391.000000	1.673139
390.000000	1.673424
