nm	Abs
700.000000	-0.002085
699.000000	-0.002204
698.000000	-0.002226
697.000000	-0.002226
696.000000	-0.002272
695.000000	-0.002154
694.000000	-0.002151
693.000000	-0.001983
692.000000	-0.001988
691.000000	-0.002086
690.000000	-0.002426
689.000000	-0.002272
688.000000	-0.002183
687.000000	-0.002188
686.000000	-0.002147
685.000000	-0.002320
684.000000	-0.002272
683.000000	-0.002196
682.000000	-0.002287
681.000000	-0.002406
680.000000	-0.002170
679.000000	-0.002083
678.000000	-0.002125
677.000000	-0.002141
676.000000	-0.002302
675.000000	-0.002158
674.000000	-0.002052
673.000000	-0.002320
672.000000	-0.002416
671.000000	-0.002136
670.000000	-0.002520
669.000000	-0.002224
668.000000	-0.002384
667.000000	-0.002262
666.000000	-0.002107
665.000000	-0.002056
664.000000	-0.002078
663.000000	-0.001880
662.000000	-0.002062
661.000000	-0.002508
660.000000	-0.002273
659.000000	-0.001972
658.000000	-0.002006
657.000000	-0.001659
656.000000	-0.001590
655.000000	-0.001697
654.000000	-0.001705
653.000000	-0.001648
652.000000	-0.001863
651.000000	-0.001546
650.000000	-0.001943
649.000000	-0.002005
648.000000	-0.001984
647.000000	-0.001861
646.000000	-0.002072
645.000000	-0.001663
644.000000	-0.001427
643.000000	-0.001395
642.000000	-0.001366
641.000000	-0.001756
640.000000	-0.001648
639.000000	-0.001747
638.000000	-0.001880
637.000000	-0.001690
636.000000	-0.001636
635.000000	-0.001869
634.000000	-0.001670
633.000000	-0.001645
632.000000	-0.001703
631.000000	-0.001687
630.000000	-0.002015
629.000000	-0.001604
628.000000	-0.001658
627.000000	-0.001414
626.000000	-0.001547
625.000000	-0.001758
624.000000	-0.001555
623.000000	-0.001650
622.000000	-0.001530
621.000000	-0.001804
620.000000	-0.001530
619.000000	-0.001701
618.000000	-0.001506
617.000000	-0.001602
616.000000	-0.001676
615.000000	-0.001652
614.000000	-0.001564
613.000000	-0.001507
612.000000	-0.001216
611.000000	-0.001262
610.000000	-0.001407
609.000000	-0.001498
608.000000	-0.001345
607.000000	-0.001457
606.000000	-0.001295
605.000000	-0.001431
604.000000	-0.001403
603.000000	-0.001415
602.000000	-0.001158
601.000000	-0.001245
600.000000	-0.001125
599.000000	-0.001274
598.000000	-0.000983
597.000000	-0.001074
596.000000	-0.001178
595.000000	-0.001278
594.000000	-0.001004
593.000000	-0.001216
592.000000	-0.001084
591.000000	-0.001217
590.000000	-0.001180
589.000000	-0.001077
588.000000	-0.001145
587.000000	-0.000929
586.000000	-0.001029
585.000000	-0.001051
584.000000	-0.001169
583.000000	-0.001095
582.000000	-0.001046
581.000000	-0.000955
580.000000	-0.000860
579.000000	-0.001172
578.000000	-0.000841
577.000000	-0.000682
576.000000	-0.000598
575.000000	-0.000396
574.000000	-0.000434
573.000000	-0.000481
572.000000	-0.000346
571.000000	0.000051
570.000000	-0.000063
569.000000	-0.000519
568.000000	-0.000402
567.000000	-0.000740
566.000000	-0.000575
565.000000	-0.000364
564.000000	-0.000758
563.000000	-0.000597
562.000000	-0.000254
561.000000	-0.000495
560.000000	-0.000347
559.000000	-0.000110
558.000000	-0.000398
557.000000	-0.000470
556.000000	-0.000444
555.000000	-0.000174
554.000000	-0.000169
553.000000	-0.000216
552.000000	-0.000127
551.000000	-0.000080
550.000000	-0.000059
549.000000	-0.000085
548.000000	-0.000216
547.000000	-0.000499
546.000000	-0.000127
545.000000	-0.000220
544.000000	-0.000461
543.000000	-0.000414
542.000000	-0.000313
541.000000	0.000059
540.000000	-0.000118
539.000000	-0.000114
538.000000	0.000207
537.000000	0.000068
536.000000	0.000034
535.000000	-0.000292
534.000000	-0.000304
533.000000	0.000245
532.000000	0.000131
531.000000	-0.000051
530.000000	0.000182
529.000000	-0.000123
528.000000	0.000270
527.000000	0.000076
526.000000	0.000190
525.000000	0.000389
524.000000	0.000194
523.000000	0.000279
522.000000	0.000380
521.000000	0.000524
520.000000	0.000460
519.000000	0.000388
518.000000	0.000384
517.000000	0.000182
516.000000	0.000621
515.000000	0.000279
514.000000	0.000139
513.000000	0.000431
512.000000	0.000236
511.000000	0.000291
510.000000	0.000574
509.000000	0.000241
508.000000	0.000329
507.000000	0.000439
506.000000	0.000198
505.000000	0.000544
504.000000	0.000316
503.000000	0.000447
502.000000	0.000611
501.000000	0.000291
500.000000	0.000506
499.000000	0.000366
498.000000	0.000552
497.000000	0.000623
496.000000	0.000682
495.000000	0.000333
494.000000	0.000589
493.000000	0.000615
492.000000	0.000656
491.000000	0.000332
490.000000	0.000286
489.000000	0.000892
488.000000	0.000626
487.000000	0.000462
486.000000	0.000899
485.000000	0.000702
484.000000	0.000832
483.000000	0.000921
482.000000	0.000803
481.000000	0.000727
480.000000	0.000865
479.000000	0.000769
478.000000	0.000744
477.000000	0.000945
476.000000	0.001164
475.000000	0.001194
474.000000	0.000874
473.000000	0.000933
472.000000	0.000946
471.000000	0.000732
470.000000	0.000963
469.000000	0.001099
468.000000	0.001293
467.000000	0.001340
466.000000	0.001071
465.000000	0.000873
464.000000	0.001207
463.000000	0.001110
462.000000	0.001284
461.000000	0.001315
460.000000	0.001243
459.000000	0.001484
458.000000	0.001613
457.000000	0.001414
456.000000	0.001580
455.000000	0.001729
454.000000	0.001433
453.000000	0.001441
452.000000	0.001661
451.000000	0.001637
450.000000	0.001819
449.000000	0.002016
448.000000	0.002075
447.000000	0.001895
446.000000	0.001725
445.000000	0.002020
444.000000	0.001966
443.000000	0.001907
442.000000	0.001810
441.000000	0.002033
440.000000	0.002435
439.000000	0.001979
438.000000	0.001955
437.000000	0.001902
436.000000	0.002219
435.000000	0.001989
434.000000	0.002284
433.000000	0.002111
432.000000	0.002937
431.000000	0.002295
430.000000	0.002775
429.000000	0.002386
428.000000	0.002823
427.000000	0.002587
426.000000	0.002794
425.000000	0.002705
424.000000	0.002696
423.000000	0.002787
422.000000	0.002688
421.000000	0.003277
420.000000	0.003481
419.000000	0.003576
418.000000	0.003469
417.000000	0.003293
416.000000	0.003665
415.000000	0.003669
414.000000	0.003707
413.000000	0.003894
412.000000	0.003887
411.000000	0.004238
410.000000	0.004260
409.000000	0.004328
408.000000	0.004431
407.000000	0.004289
406.000000	0.004353
405.000000	0.004456
404.000000	0.004647
403.000000	0.004724
402.000000	0.004963
401.000000	0.004942
400.000000	0.005389
399.000000	0.005354
398.000000	0.005213
397.000000	0.005426
396.000000	0.005702
395.000000	0.005640
394.000000	0.005336
393.000000	0.005481
392.000000	0.006015
391.000000	0.006394
390.000000	0.006345
