PE UV       SUBTECH     SPECTRUM    ASCII       PEDS        4.00        
   -1
100% or 0 Absorbance Baseline.Correction.Raw.asc
20/10/05
15:23:28.00
20/10/05
15:23:28.00
Analyst

390,000000
1
Lambda 25
501s11081509
PerkinElmer UV WinLab 6.0.3.0730 / Lambda25 1.27

480
0
1
0
0
Both on
0
1
1
None
0
0
0
0
 
 
0
0
0
0
0
 
 
 
0
 
0
326
0
 
0
 
 
 
0
0
0
 
0
 
 
 
0
 
 
0
0
0
0
0
 
 
 
 
0
0


#HDR
-1
-1
#GR
nm
A
1.0
0.0
700,000000
-1,000000
311
8
-0,007133
-0,025158
#DATA
700,000000	-0,025158
699,000000	-0,024921
698,000000	-0,024871
697,000000	-0,024605
696,000000	-0,024642
695,000000	-0,024449
694,000000	-0,024395
693,000000	-0,024124
692,000000	-0,024198
691,000000	-0,024211
690,000000	-0,023660
689,000000	-0,023874
688,000000	-0,023491
687,000000	-0,023503
686,000000	-0,023586
685,000000	-0,023314
684,000000	-0,023096
683,000000	-0,022931
682,000000	-0,022832
681,000000	-0,022511
680,000000	-0,022630
679,000000	-0,022395
678,000000	-0,022482
677,000000	-0,022544
676,000000	-0,022098
675,000000	-0,022267
674,000000	-0,022020
673,000000	-0,022131
672,000000	-0,021756
671,000000	-0,022098
670,000000	-0,021826
669,000000	-0,021718
668,000000	-0,021599
667,000000	-0,021607
666,000000	-0,021636
665,000000	-0,021557
664,000000	-0,021363
663,000000	-0,021272
662,000000	-0,021260
661,000000	-0,021309
660,000000	-0,021160
659,000000	-0,020846
658,000000	-0,020999
657,000000	-0,020920
656,000000	-0,020626
655,000000	-0,020585
654,000000	-0,020498
653,000000	-0,020477
652,000000	-0,020357
651,000000	-0,020560
650,000000	-0,020486
649,000000	-0,020332
648,000000	-0,020283
647,000000	-0,020328
646,000000	-0,020225
645,000000	-0,020121
644,000000	-0,019860
643,000000	-0,020034
642,000000	-0,019880
641,000000	-0,019996
640,000000	-0,019835
639,000000	-0,019864
638,000000	-0,019685
637,000000	-0,019872
636,000000	-0,019988
635,000000	-0,019868
634,000000	-0,019640
633,000000	-0,019615
632,000000	-0,019635
631,000000	-0,019594
630,000000	-0,019503
629,000000	-0,019490
628,000000	-0,019552
627,000000	-0,019374
626,000000	-0,019486
625,000000	-0,019411
624,000000	-0,019353
623,000000	-0,019312
622,000000	-0,019262
621,000000	-0,019179
620,000000	-0,019145
619,000000	-0,019195
618,000000	-0,019187
617,000000	-0,019166
616,000000	-0,019150
615,000000	-0,019548
614,000000	-0,019187
613,000000	-0,019278
612,000000	-0,019370
611,000000	-0,019150
610,000000	-0,019145
609,000000	-0,019349
608,000000	-0,019357
607,000000	-0,019515
606,000000	-0,019241
605,000000	-0,019582
604,000000	-0,019606
603,000000	-0,019577
602,000000	-0,019598
601,000000	-0,019872
600,000000	-0,019723
599,000000	-0,019723
598,000000	-0,019660
597,000000	-0,019561
596,000000	-0,019602
595,000000	-0,019586
594,000000	-0,019444
593,000000	-0,019440
592,000000	-0,019382
591,000000	-0,019228
590,000000	-0,018850
589,000000	-0,018755
588,000000	-0,018139
587,000000	-0,017697
586,000000	-0,017488
585,000000	-0,017213
584,000000	-0,016678
583,000000	-0,016072
582,000000	-0,015410
581,000000	-0,015083
580,000000	-0,014445
579,000000	-0,014168
578,000000	-0,013574
577,000000	-0,013141
576,000000	-0,012947
575,000000	-0,012694
574,000000	-0,012369
573,000000	-0,012183
572,000000	-0,012040
571,000000	-0,011761
570,000000	-0,011663
569,000000	-0,011414
568,000000	-0,011266
567,000000	-0,010910
566,000000	-0,010859
565,000000	-0,010936
564,000000	-0,010927
563,000000	-0,010957
562,000000	-0,011058
561,000000	-0,011003
560,000000	-0,010995
559,000000	-0,011266
558,000000	-0,011325
557,000000	-0,011397
556,000000	-0,011266
555,000000	-0,011672
554,000000	-0,011130
553,000000	-0,011359
552,000000	-0,011219
551,000000	-0,011405
550,000000	-0,011190
549,000000	-0,011376
548,000000	-0,011393
547,000000	-0,011570
546,000000	-0,011617
545,000000	-0,011871
544,000000	-0,011765
543,000000	-0,011837
542,000000	-0,011858
541,000000	-0,011938
540,000000	-0,011917
539,000000	-0,011697
538,000000	-0,011849
537,000000	-0,011554
536,000000	-0,011638
535,000000	-0,011752
534,000000	-0,011993
533,000000	-0,011824
532,000000	-0,011955
531,000000	-0,011997
530,000000	-0,011972
529,000000	-0,011993
528,000000	-0,011959
527,000000	-0,012094
526,000000	-0,012263
525,000000	-0,011871
524,000000	-0,012200
523,000000	-0,012213
522,000000	-0,012002
521,000000	-0,012183
520,000000	-0,012145
519,000000	-0,012327
518,000000	-0,012238
517,000000	-0,012377
516,000000	-0,012512
515,000000	-0,012685
514,000000	-0,012850
513,000000	-0,012850
512,000000	-0,012803
511,000000	-0,012892
510,000000	-0,012736
509,000000	-0,012917
508,000000	-0,013158
507,000000	-0,013056
506,000000	-0,013086
505,000000	-0,013313
504,000000	-0,013393
503,000000	-0,013309
502,000000	-0,013494
501,000000	-0,013516
500,000000	-0,013730
499,000000	-0,013482
498,000000	-0,014041
497,000000	-0,014168
496,000000	-0,013941
495,000000	-0,014151
494,000000	-0,014281
493,000000	-0,014449
492,000000	-0,014222
491,000000	-0,014260
490,000000	-0,014617
489,000000	-0,014882
488,000000	-0,014701
487,000000	-0,014730
486,000000	-0,014827
485,000000	-0,014642
484,000000	-0,014932
483,000000	-0,014915
482,000000	-0,014987
481,000000	-0,015150
480,000000	-0,015205
479,000000	-0,015276
478,000000	-0,015385
477,000000	-0,015247
476,000000	-0,015079
475,000000	-0,014710
474,000000	-0,015343
473,000000	-0,015527
472,000000	-0,014537
471,000000	-0,014894
470,000000	-0,014903
469,000000	-0,014659
468,000000	-0,014285
467,000000	-0,013991
466,000000	-0,013596
465,000000	-0,013638
464,000000	-0,013356
463,000000	-0,013318
462,000000	-0,013056
461,000000	-0,012993
460,000000	-0,012639
459,000000	-0,012301
458,000000	-0,012310
457,000000	-0,011921
456,000000	-0,011833
455,000000	-0,011609
454,000000	-0,011617
453,000000	-0,011317
452,000000	-0,011346
451,000000	-0,011718
450,000000	-0,011393
449,000000	-0,011147
448,000000	-0,011139
447,000000	-0,010677
446,000000	-0,010457
445,000000	-0,010453
444,000000	-0,010092
443,000000	-0,009757
442,000000	-0,009876
441,000000	-0,009204
440,000000	-0,008996
439,000000	-0,008817
438,000000	-0,008643
437,000000	-0,008302
436,000000	-0,007773
435,000000	-0,007999
434,000000	-0,008285
433,000000	-0,007927
432,000000	-0,008085
431,000000	-0,007564
430,000000	-0,007171
429,000000	-0,007428
428,000000	-0,007274
427,000000	-0,007364
426,000000	-0,007906
425,000000	-0,007475
424,000000	-0,007748
423,000000	-0,007701
422,000000	-0,007526
421,000000	-0,007133
420,000000	-0,007359
419,000000	-0,007607
418,000000	-0,007295
417,000000	-0,007197
416,000000	-0,007398
415,000000	-0,007522
414,000000	-0,007534
413,000000	-0,007376
412,000000	-0,007859
411,000000	-0,007931
410,000000	-0,007820
409,000000	-0,008021
408,000000	-0,007859
407,000000	-0,007957
406,000000	-0,008063
405,000000	-0,008234
404,000000	-0,008038
403,000000	-0,008315
402,000000	-0,008340
401,000000	-0,008464
400,000000	-0,008630
399,000000	-0,008583
398,000000	-0,008634
397,000000	-0,008792
396,000000	-0,008541
395,000000	-0,009056
394,000000	-0,009073
393,000000	-0,009077
392,000000	-0,009379
391,000000	-0,009404
390,000000	-0,009629
