PE UV       SUBTECH     SPECTRUM    ASCII       PEDS        4.00        
   -1
11.Sample.Raw.asc
20/10/05
15:53:14.00
20/10/05
15:53:14.00
Analyst

390,000000
1
Lambda 25
501s11081509
PerkinElmer UV WinLab 6.0.3.0730 / Lambda25 1.27

480
2
1
0
0
Both on
1
1
1
None
0
0
0
0
 
 
0
0
0
0
0
 
 
 
0
 
0
326
0
 
0
 
 
 
0
0
0
 
0
 
 
 
0
 
 
0
0
0
0
0
 
 
 
 
0
0


#HDR
-1
-1
#GR
nm
A
1.0
0.0
700,000000
-1,000000
311
8
0,291338
0,005324
#DATA
700,000000	0,005444
699,000000	0,005493
698,000000	0,005327
697,000000	0,005509
696,000000	0,005438
695,000000	0,005582
694,000000	0,005724
693,000000	0,005324
692,000000	0,005914
691,000000	0,005885
690,000000	0,005330
689,000000	0,005943
688,000000	0,005615
687,000000	0,005994
686,000000	0,006123
685,000000	0,006143
684,000000	0,006046
683,000000	0,006780
682,000000	0,006790
681,000000	0,006942
680,000000	0,007044
679,000000	0,006805
678,000000	0,006959
677,000000	0,007209
676,000000	0,007028
675,000000	0,007390
674,000000	0,007088
673,000000	0,007552
672,000000	0,007164
671,000000	0,007389
670,000000	0,007520
669,000000	0,007425
668,000000	0,007494
667,000000	0,007872
666,000000	0,008049
665,000000	0,007987
664,000000	0,007805
663,000000	0,007744
662,000000	0,007845
661,000000	0,008350
660,000000	0,008226
659,000000	0,008135
658,000000	0,008508
657,000000	0,008695
656,000000	0,008469
655,000000	0,008634
654,000000	0,008796
653,000000	0,008645
652,000000	0,008685
651,000000	0,008922
650,000000	0,008949
649,000000	0,008961
648,000000	0,009169
647,000000	0,009177
646,000000	0,009238
645,000000	0,009363
644,000000	0,009030
643,000000	0,009666
642,000000	0,009322
641,000000	0,009769
640,000000	0,009539
639,000000	0,009716
638,000000	0,009640
637,000000	0,009945
636,000000	0,010202
635,000000	0,010026
634,000000	0,010087
633,000000	0,010002
632,000000	0,010342
631,000000	0,010279
630,000000	0,010196
629,000000	0,010222
628,000000	0,010463
627,000000	0,010514
626,000000	0,010562
625,000000	0,010517
624,000000	0,010766
623,000000	0,010818
622,000000	0,011002
621,000000	0,011021
620,000000	0,011018
619,000000	0,011281
618,000000	0,011324
617,000000	0,011563
616,000000	0,011782
615,000000	0,012197
614,000000	0,012195
613,000000	0,012586
612,000000	0,012604
611,000000	0,012414
610,000000	0,012581
609,000000	0,012819
608,000000	0,013139
607,000000	0,013773
606,000000	0,013876
605,000000	0,014058
604,000000	0,014456
603,000000	0,014500
602,000000	0,014714
601,000000	0,015172
600,000000	0,015281
599,000000	0,015582
598,000000	0,015692
597,000000	0,015902
596,000000	0,016133
595,000000	0,016509
594,000000	0,016808
593,000000	0,016937
592,000000	0,016987
591,000000	0,017603
590,000000	0,017913
589,000000	0,018299
588,000000	0,018317
587,000000	0,018279
586,000000	0,018728
585,000000	0,019385
584,000000	0,019484
583,000000	0,019744
582,000000	0,020034
581,000000	0,020805
580,000000	0,021172
579,000000	0,021720
578,000000	0,021706
577,000000	0,021972
576,000000	0,022532
575,000000	0,022804
574,000000	0,023195
573,000000	0,023704
572,000000	0,024186
571,000000	0,024537
570,000000	0,025089
569,000000	0,025144
568,000000	0,025952
567,000000	0,025857
566,000000	0,026431
565,000000	0,026940
564,000000	0,027748
563,000000	0,027913
562,000000	0,028516
561,000000	0,028895
560,000000	0,029552
559,000000	0,029769
558,000000	0,030477
557,000000	0,030962
556,000000	0,031440
555,000000	0,032465
554,000000	0,032457
553,000000	0,033233
552,000000	0,033793
551,000000	0,034648
550,000000	0,035106
549,000000	0,035889
548,000000	0,036375
547,000000	0,037372
546,000000	0,037981
545,000000	0,038766
544,000000	0,039382
543,000000	0,039986
542,000000	0,041130
541,000000	0,041898
540,000000	0,042464
539,000000	0,043182
538,000000	0,044330
537,000000	0,044741
536,000000	0,045792
535,000000	0,046654
534,000000	0,047762
533,000000	0,048726
532,000000	0,049647
531,000000	0,050586
530,000000	0,051397
529,000000	0,052403
528,000000	0,053329
527,000000	0,054344
526,000000	0,055711
525,000000	0,056039
524,000000	0,057721
523,000000	0,058559
522,000000	0,059417
521,000000	0,060525
520,000000	0,061498
519,000000	0,062493
518,000000	0,063248
517,000000	0,064219
516,000000	0,065564
515,000000	0,066523
514,000000	0,067406
513,000000	0,068229
512,000000	0,069096
511,000000	0,069967
510,000000	0,070763
509,000000	0,071600
508,000000	0,072512
507,000000	0,073442
506,000000	0,074571
505,000000	0,075209
504,000000	0,076101
503,000000	0,076715
502,000000	0,077569
501,000000	0,078447
500,000000	0,079328
499,000000	0,079848
498,000000	0,081000
497,000000	0,082029
496,000000	0,082595
495,000000	0,083625
494,000000	0,084489
493,000000	0,085194
492,000000	0,085831
491,000000	0,086700
490,000000	0,087802
489,000000	0,088910
488,000000	0,089219
487,000000	0,090265
486,000000	0,090987
485,000000	0,091269
484,000000	0,092222
483,000000	0,093203
482,000000	0,093893
481,000000	0,094735
480,000000	0,095625
479,000000	0,096402
478,000000	0,097003
477,000000	0,097862
476,000000	0,098367
475,000000	0,099062
474,000000	0,100270
473,000000	0,101777
472,000000	0,101519
471,000000	0,103103
470,000000	0,104027
469,000000	0,104937
468,000000	0,105881
467,000000	0,106827
466,000000	0,107719
465,000000	0,109214
464,000000	0,110624
463,000000	0,112061
462,000000	0,113477
461,000000	0,114751
460,000000	0,116267
459,000000	0,117991
458,000000	0,119831
457,000000	0,121629
456,000000	0,123535
455,000000	0,125586
454,000000	0,127700
453,000000	0,129481
452,000000	0,131603
451,000000	0,134451
450,000000	0,136592
449,000000	0,139137
448,000000	0,141866
447,000000	0,144331
446,000000	0,147283
445,000000	0,150121
444,000000	0,153152
443,000000	0,156460
442,000000	0,160272
441,000000	0,163548
440,000000	0,167311
439,000000	0,171766
438,000000	0,176357
437,000000	0,180552
436,000000	0,184743
435,000000	0,190150
434,000000	0,195746
433,000000	0,201055
432,000000	0,207210
431,000000	0,213432
430,000000	0,220583
429,000000	0,227507
428,000000	0,234432
427,000000	0,241375
426,000000	0,248744
425,000000	0,254236
424,000000	0,260717
423,000000	0,265856
422,000000	0,270516
421,000000	0,265832
420,000000	0,268032
419,000000	0,269033
418,000000	0,268745
417,000000	0,268520
416,000000	0,267731
415,000000	0,267183
414,000000	0,266438
413,000000	0,266446
412,000000	0,267496
411,000000	0,267987
410,000000	0,269404
409,000000	0,270669
408,000000	0,272212
407,000000	0,273405
406,000000	0,275236
405,000000	0,276935
404,000000	0,278727
403,000000	0,280969
402,000000	0,282657
401,000000	0,285855
400,000000	0,287826
399,000000	0,289534
398,000000	0,290947
397,000000	0,291338
396,000000	0,291078
395,000000	0,290936
394,000000	0,290139
393,000000	0,288917
392,000000	0,288674
391,000000	0,287585
390,000000	0,287325
