PE UV       SUBTECH     SPECTRUM    ASCII       PEDS        4.00        
   -1
12.Sample.Raw.asc
20/10/05
15:56:58.00
20/10/05
15:56:58.00
Analyst

390,000000
1
Lambda 25
501s11081509
PerkinElmer UV WinLab 6.0.3.0730 / Lambda25 1.27

480
2
1
0
0
Both on
1
1
1
None
0
0
0
0
 
 
0
0
0
0
0
 
 
 
0
 
0
326
0
 
0
 
 
 
0
0
0
 
0
 
 
 
0
 
 
0
0
0
0
0
 
 
 
 
0
0


#HDR
-1
-1
#GR
nm
A
1.0
0.0
700,000000
-1,000000
311
8
0,425638
0,047554
#DATA
700,000000	0,047554
699,000000	0,047581
698,000000	0,047898
697,000000	0,047966
696,000000	0,048315
695,000000	0,048558
694,000000	0,048743
693,000000	0,048715
692,000000	0,049194
691,000000	0,049524
690,000000	0,049300
689,000000	0,049694
688,000000	0,049722
687,000000	0,050149
686,000000	0,050587
685,000000	0,050723
684,000000	0,051027
683,000000	0,052031
682,000000	0,052281
681,000000	0,052345
680,000000	0,052567
679,000000	0,052719
678,000000	0,053248
677,000000	0,053599
676,000000	0,053555
675,000000	0,053920
674,000000	0,054037
673,000000	0,054499
672,000000	0,054484
671,000000	0,055009
670,000000	0,055191
669,000000	0,055624
668,000000	0,055870
667,000000	0,056283
666,000000	0,056782
665,000000	0,056817
664,000000	0,057089
663,000000	0,057319
662,000000	0,057760
661,000000	0,058273
660,000000	0,058663
659,000000	0,058481
658,000000	0,059341
657,000000	0,059286
656,000000	0,059291
655,000000	0,059563
654,000000	0,059747
653,000000	0,060125
652,000000	0,060539
651,000000	0,060985
650,000000	0,061368
649,000000	0,061391
648,000000	0,061919
647,000000	0,061965
646,000000	0,062354
645,000000	0,062552
644,000000	0,063139
643,000000	0,063654
642,000000	0,064053
641,000000	0,064453
640,000000	0,064676
639,000000	0,064884
638,000000	0,065390
637,000000	0,065837
636,000000	0,066625
635,000000	0,066819
634,000000	0,067114
633,000000	0,067409
632,000000	0,067745
631,000000	0,068286
630,000000	0,068782
629,000000	0,069223
628,000000	0,069958
627,000000	0,070086
626,000000	0,070711
625,000000	0,071209
624,000000	0,071483
623,000000	0,072054
622,000000	0,072377
621,000000	0,072658
620,000000	0,073175
619,000000	0,073835
618,000000	0,074231
617,000000	0,074674
616,000000	0,075126
615,000000	0,075965
614,000000	0,076153
613,000000	0,076299
612,000000	0,076747
611,000000	0,076948
610,000000	0,077172
609,000000	0,077842
608,000000	0,078179
607,000000	0,078939
606,000000	0,078754
605,000000	0,079598
604,000000	0,079743
603,000000	0,080143
602,000000	0,080264
601,000000	0,080942
600,000000	0,081173
599,000000	0,081393
598,000000	0,081696
597,000000	0,081857
596,000000	0,082315
595,000000	0,082791
594,000000	0,082921
593,000000	0,083269
592,000000	0,083633
591,000000	0,084331
590,000000	0,084539
589,000000	0,085136
588,000000	0,085208
587,000000	0,085619
586,000000	0,086147
585,000000	0,086595
584,000000	0,087234
583,000000	0,087686
582,000000	0,088240
581,000000	0,088617
580,000000	0,089123
579,000000	0,089661
578,000000	0,090009
577,000000	0,090602
576,000000	0,091198
575,000000	0,091694
574,000000	0,092094
573,000000	0,092702
572,000000	0,093338
571,000000	0,093924
570,000000	0,094189
569,000000	0,094813
568,000000	0,095370
567,000000	0,095431
566,000000	0,096210
565,000000	0,096698
564,000000	0,097468
563,000000	0,098150
562,000000	0,098491
561,000000	0,099260
560,000000	0,099901
559,000000	0,100247
558,000000	0,100770
557,000000	0,101136
556,000000	0,101491
555,000000	0,102319
554,000000	0,102393
553,000000	0,103298
552,000000	0,103717
551,000000	0,104279
550,000000	0,104865
549,000000	0,105418
548,000000	0,105797
547,000000	0,106417
546,000000	0,106907
545,000000	0,107647
544,000000	0,108138
543,000000	0,108682
542,000000	0,108974
541,000000	0,109582
540,000000	0,109969
539,000000	0,110223
538,000000	0,110560
537,000000	0,110870
536,000000	0,111582
535,000000	0,112096
534,000000	0,112731
533,000000	0,113165
532,000000	0,113652
531,000000	0,113997
530,000000	0,114460
529,000000	0,115142
528,000000	0,115609
527,000000	0,116054
526,000000	0,116797
525,000000	0,117211
524,000000	0,117995
523,000000	0,118723
522,000000	0,118723
521,000000	0,119599
520,000000	0,120307
519,000000	0,121230
518,000000	0,121851
517,000000	0,122365
516,000000	0,123513
515,000000	0,124163
514,000000	0,124873
513,000000	0,125503
512,000000	0,126318
511,000000	0,127022
510,000000	0,127726
509,000000	0,128728
508,000000	0,129684
507,000000	0,130447
506,000000	0,131325
505,000000	0,132208
504,000000	0,132911
503,000000	0,134087
502,000000	0,134967
501,000000	0,135943
500,000000	0,136941
499,000000	0,137616
498,000000	0,138760
497,000000	0,140173
496,000000	0,140696
495,000000	0,141645
494,000000	0,143123
493,000000	0,144028
492,000000	0,144879
491,000000	0,145592
490,000000	0,147020
489,000000	0,148612
488,000000	0,149177
487,000000	0,150243
486,000000	0,151986
485,000000	0,152535
484,000000	0,154097
483,000000	0,155273
482,000000	0,156185
481,000000	0,157854
480,000000	0,158983
479,000000	0,160242
478,000000	0,161541
477,000000	0,162913
476,000000	0,163882
475,000000	0,164830
474,000000	0,166717
473,000000	0,168171
472,000000	0,168411
471,000000	0,170013
470,000000	0,171527
469,000000	0,172381
468,000000	0,173721
467,000000	0,174821
466,000000	0,176272
465,000000	0,177573
464,000000	0,178839
463,000000	0,180560
462,000000	0,181961
461,000000	0,183612
460,000000	0,184740
459,000000	0,186499
458,000000	0,188282
457,000000	0,189603
456,000000	0,191276
455,000000	0,192519
454,000000	0,194687
453,000000	0,195759
452,000000	0,197772
451,000000	0,199996
450,000000	0,201369
449,000000	0,203382
448,000000	0,205298
447,000000	0,207097
446,000000	0,208690
445,000000	0,210933
444,000000	0,212838
443,000000	0,214482
442,000000	0,217274
441,000000	0,218884
440,000000	0,221486
439,000000	0,223687
438,000000	0,225654
437,000000	0,228071
436,000000	0,230035
435,000000	0,233534
434,000000	0,236235
433,000000	0,238343
432,000000	0,240914
431,000000	0,243740
430,000000	0,246749
429,000000	0,249478
428,000000	0,252223
427,000000	0,255008
426,000000	0,259206
425,000000	0,261752
424,000000	0,264905
423,000000	0,268136
422,000000	0,271105
421,000000	0,268281
420,000000	0,272208
419,000000	0,275962
418,000000	0,279055
417,000000	0,282242
416,000000	0,286239
415,000000	0,289668
414,000000	0,293767
413,000000	0,297073
412,000000	0,301815
411,000000	0,306027
410,000000	0,310138
409,000000	0,314716
408,000000	0,318790
407,000000	0,323470
406,000000	0,328408
405,000000	0,332896
404,000000	0,338145
403,000000	0,342978
402,000000	0,348681
401,000000	0,354355
400,000000	0,360426
399,000000	0,366386
398,000000	0,371695
397,000000	0,377541
396,000000	0,383383
395,000000	0,390223
394,000000	0,396564
393,000000	0,403298
392,000000	0,410993
391,000000	0,417761
390,000000	0,425638
