PE UV       SUBTECH     SPECTRUM    ASCII       PEDS        4.00        
   -1
2.Sample.Raw.asc
20/10/05
15:33:38.00
20/10/05
15:33:38.00
Analyst

390,000000
1
Lambda 25
501s11081509
PerkinElmer UV WinLab 6.0.3.0730 / Lambda25 1.27

480
2
1
0
0
Both on
1
1
1
None
0
0
0
0
 
 
0
0
0
0
0
 
 
 
0
 
0
326
0
 
0
 
 
 
0
0
0
 
0
 
 
 
0
 
 
0
0
0
0
0
 
 
 
 
0
0


#HDR
-1
-1
#GR
nm
A
1.0
0.0
700,000000
-1,000000
311
8
0,066367
0,012937
#DATA
700,000000	0,013119
699,000000	0,013278
698,000000	0,013106
697,000000	0,012937
696,000000	0,013088
695,000000	0,013327
694,000000	0,013341
693,000000	0,013151
692,000000	0,013572
691,000000	0,013550
690,000000	0,013156
689,000000	0,013578
688,000000	0,013289
687,000000	0,013560
686,000000	0,013583
685,000000	0,013604
684,000000	0,013556
683,000000	0,013723
682,000000	0,013679
681,000000	0,013574
680,000000	0,013843
679,000000	0,013604
678,000000	0,013801
677,000000	0,013939
676,000000	0,013622
675,000000	0,014000
674,000000	0,014281
673,000000	0,014226
672,000000	0,014136
671,000000	0,014346
670,000000	0,014142
669,000000	0,014286
668,000000	0,014474
667,000000	0,014478
666,000000	0,014584
665,000000	0,014912
664,000000	0,014649
663,000000	0,014536
662,000000	0,014717
661,000000	0,014847
660,000000	0,014831
659,000000	0,014448
658,000000	0,014957
657,000000	0,014998
656,000000	0,014858
655,000000	0,014963
654,000000	0,014756
653,000000	0,014988
652,000000	0,014731
651,000000	0,015259
650,000000	0,015206
649,000000	0,015040
648,000000	0,015222
647,000000	0,015577
646,000000	0,015190
645,000000	0,015451
644,000000	0,015173
643,000000	0,015614
642,000000	0,015503
641,000000	0,015645
640,000000	0,015320
639,000000	0,015547
638,000000	0,015428
637,000000	0,015804
636,000000	0,015792
635,000000	0,016015
634,000000	0,015688
633,000000	0,015935
632,000000	0,016007
631,000000	0,015707
630,000000	0,015874
629,000000	0,015879
628,000000	0,016480
627,000000	0,016168
626,000000	0,016241
625,000000	0,015994
624,000000	0,016035
623,000000	0,016174
622,000000	0,016284
621,000000	0,016149
620,000000	0,016159
619,000000	0,016360
618,000000	0,016356
617,000000	0,016249
616,000000	0,016444
615,000000	0,016747
614,000000	0,016619
613,000000	0,016724
612,000000	0,017031
611,000000	0,016888
610,000000	0,016690
609,000000	0,016906
608,000000	0,017036
607,000000	0,017142
606,000000	0,017053
605,000000	0,017212
604,000000	0,017328
603,000000	0,017329
602,000000	0,017385
601,000000	0,017801
600,000000	0,017509
599,000000	0,017453
598,000000	0,017520
597,000000	0,017563
596,000000	0,017510
595,000000	0,017618
594,000000	0,017356
593,000000	0,017577
592,000000	0,017679
591,000000	0,017958
590,000000	0,017645
589,000000	0,018160
588,000000	0,017735
587,000000	0,017831
586,000000	0,017897
585,000000	0,018039
584,000000	0,018397
583,000000	0,017917
582,000000	0,018046
581,000000	0,018265
580,000000	0,018270
579,000000	0,018309
578,000000	0,018181
577,000000	0,018322
576,000000	0,018379
575,000000	0,018790
574,000000	0,018871
573,000000	0,018963
572,000000	0,019044
571,000000	0,019022
570,000000	0,019181
569,000000	0,019002
568,000000	0,019092
567,000000	0,018958
566,000000	0,018943
565,000000	0,019289
564,000000	0,019294
563,000000	0,019381
562,000000	0,019571
561,000000	0,019454
560,000000	0,019773
559,000000	0,019491
558,000000	0,019745
557,000000	0,019821
556,000000	0,019743
555,000000	0,020167
554,000000	0,019807
553,000000	0,020275
552,000000	0,020140
551,000000	0,020188
550,000000	0,020030
549,000000	0,020061
548,000000	0,020309
547,000000	0,020344
546,000000	0,020493
545,000000	0,020543
544,000000	0,020796
543,000000	0,020894
542,000000	0,020933
541,000000	0,020827
540,000000	0,020882
539,000000	0,020719
538,000000	0,020841
537,000000	0,020851
536,000000	0,021024
535,000000	0,021196
534,000000	0,021450
533,000000	0,021436
532,000000	0,021510
531,000000	0,021587
530,000000	0,021527
529,000000	0,021783
528,000000	0,021585
527,000000	0,021804
526,000000	0,022213
525,000000	0,021701
524,000000	0,022417
523,000000	0,022185
522,000000	0,022254
521,000000	0,022422
520,000000	0,022219
519,000000	0,022459
518,000000	0,022206
517,000000	0,022616
516,000000	0,022840
515,000000	0,022946
514,000000	0,023289
513,000000	0,023066
512,000000	0,023056
511,000000	0,023282
510,000000	0,023082
509,000000	0,023459
508,000000	0,023783
507,000000	0,023567
506,000000	0,023672
505,000000	0,024073
504,000000	0,024082
503,000000	0,023922
502,000000	0,024009
501,000000	0,023892
500,000000	0,024178
499,000000	0,024068
498,000000	0,024574
497,000000	0,024793
496,000000	0,024744
495,000000	0,024625
494,000000	0,025045
493,000000	0,025035
492,000000	0,024804
491,000000	0,024948
490,000000	0,025555
489,000000	0,025632
488,000000	0,025389
487,000000	0,025668
486,000000	0,025871
485,000000	0,025477
484,000000	0,025878
483,000000	0,026116
482,000000	0,026093
481,000000	0,026306
480,000000	0,026204
479,000000	0,026802
478,000000	0,026835
477,000000	0,026670
476,000000	0,026676
475,000000	0,026387
474,000000	0,027279
473,000000	0,027665
472,000000	0,027036
471,000000	0,027478
470,000000	0,027840
469,000000	0,027784
468,000000	0,027926
467,000000	0,027927
466,000000	0,027796
465,000000	0,028157
464,000000	0,028315
463,000000	0,028471
462,000000	0,028669
461,000000	0,028961
460,000000	0,029071
459,000000	0,029045
458,000000	0,029636
457,000000	0,029153
456,000000	0,029647
455,000000	0,029627
454,000000	0,030188
453,000000	0,029992
452,000000	0,030031
451,000000	0,031256
450,000000	0,030367
449,000000	0,030880
448,000000	0,031277
447,000000	0,031111
446,000000	0,031204
445,000000	0,031651
444,000000	0,031925
443,000000	0,032056
442,000000	0,032678
441,000000	0,032492
440,000000	0,032362
439,000000	0,033280
438,000000	0,033321
437,000000	0,033307
436,000000	0,033179
435,000000	0,034281
434,000000	0,034525
433,000000	0,034568
432,000000	0,035294
431,000000	0,035116
430,000000	0,035182
429,000000	0,035609
428,000000	0,035636
427,000000	0,036701
426,000000	0,037824
425,000000	0,037612
424,000000	0,038015
423,000000	0,038276
422,000000	0,038623
421,000000	0,038678
420,000000	0,039096
419,000000	0,039951
418,000000	0,039705
417,000000	0,040056
416,000000	0,040627
415,000000	0,041450
414,000000	0,041740
413,000000	0,041968
412,000000	0,042826
411,000000	0,043257
410,000000	0,043971
409,000000	0,044677
408,000000	0,045073
407,000000	0,045583
406,000000	0,046301
405,000000	0,047459
404,000000	0,047914
403,000000	0,049011
402,000000	0,049485
401,000000	0,050976
400,000000	0,052140
399,000000	0,053232
398,000000	0,054286
397,000000	0,055438
396,000000	0,056640
395,000000	0,058224
394,000000	0,059897
393,000000	0,061114
392,000000	0,063344
391,000000	0,064621
390,000000	0,066367
