PE UV       SUBTECH     SPECTRUM    ASCII       PEDS        4.00        
   -1
20.Sample.Raw.asc
20/10/05
15:59:03.00
20/10/05
15:59:03.00
Analyst

390,000000
1
Lambda 25
501s11081509
PerkinElmer UV WinLab 6.0.3.0730 / Lambda25 1.27

480
2
1
0
0
Both on
1
1
1
None
0
0
0
0
 
 
0
0
0
0
0
 
 
 
0
 
0
326
0
 
0
 
 
 
0
0
0
 
0
 
 
 
0
 
 
0
0
0
0
0
 
 
 
 
0
0


#HDR
-1
-1
#GR
nm
A
1.0
0.0
700,000000
-1,000000
311
8
0,232333
0,001277
#DATA
700,000000	0,001482
699,000000	0,001619
698,000000	0,001537
697,000000	0,001550
696,000000	0,001570
695,000000	0,001682
694,000000	0,001650
693,000000	0,001486
692,000000	0,001708
691,000000	0,001799
690,000000	0,001277
689,000000	0,001635
688,000000	0,001471
687,000000	0,001649
686,000000	0,001661
685,000000	0,001852
684,000000	0,001845
683,000000	0,002243
682,000000	0,002426
681,000000	0,002220
680,000000	0,002282
679,000000	0,002391
678,000000	0,002311
677,000000	0,002527
676,000000	0,002127
675,000000	0,002192
674,000000	0,002073
673,000000	0,002334
672,000000	0,002037
671,000000	0,002745
670,000000	0,002469
669,000000	0,002394
668,000000	0,002378
667,000000	0,002449
666,000000	0,002503
665,000000	0,002632
664,000000	0,002359
663,000000	0,002505
662,000000	0,002551
661,000000	0,002750
660,000000	0,002668
659,000000	0,002395
658,000000	0,002694
657,000000	0,002694
656,000000	0,002346
655,000000	0,002526
654,000000	0,002380
653,000000	0,002505
652,000000	0,002360
651,000000	0,002472
650,000000	0,002372
649,000000	0,002506
648,000000	0,002490
647,000000	0,003036
646,000000	0,002549
645,000000	0,002478
644,000000	0,002330
643,000000	0,002541
642,000000	0,002267
641,000000	0,002254
640,000000	0,002288
639,000000	0,002275
638,000000	0,002272
637,000000	0,002488
636,000000	0,002587
635,000000	0,002592
634,000000	0,002318
633,000000	0,002197
632,000000	0,002335
631,000000	0,002498
630,000000	0,002240
629,000000	0,002198
628,000000	0,002665
627,000000	0,002261
626,000000	0,002457
625,000000	0,002340
624,000000	0,002403
623,000000	0,002366
622,000000	0,002253
621,000000	0,002362
620,000000	0,002304
619,000000	0,002697
618,000000	0,002312
617,000000	0,002363
616,000000	0,002492
615,000000	0,002966
614,000000	0,002672
613,000000	0,002634
612,000000	0,002679
611,000000	0,002325
610,000000	0,002488
609,000000	0,002600
608,000000	0,002654
607,000000	0,002883
606,000000	0,002696
605,000000	0,003045
604,000000	0,002891
603,000000	0,002962
602,000000	0,002928
601,000000	0,003185
600,000000	0,002906
599,000000	0,002869
598,000000	0,002911
597,000000	0,002958
596,000000	0,003083
595,000000	0,003054
594,000000	0,003042
593,000000	0,002967
592,000000	0,003030
591,000000	0,002939
590,000000	0,002762
589,000000	0,003051
588,000000	0,002934
587,000000	0,003084
586,000000	0,003186
585,000000	0,003474
584,000000	0,003213
583,000000	0,003062
582,000000	0,003062
581,000000	0,003394
580,000000	0,003319
579,000000	0,003550
578,000000	0,003321
577,000000	0,003635
576,000000	0,003598
575,000000	0,003902
574,000000	0,003692
573,000000	0,003890
572,000000	0,004053
571,000000	0,003706
570,000000	0,003911
569,000000	0,003790
568,000000	0,003945
567,000000	0,003769
566,000000	0,003932
565,000000	0,003986
564,000000	0,004128
563,000000	0,004016
562,000000	0,004323
561,000000	0,004152
560,000000	0,004426
559,000000	0,003501
558,000000	0,003910
557,000000	0,004080
556,000000	0,003804
555,000000	0,004142
554,000000	0,003797
553,000000	0,003820
552,000000	0,003903
551,000000	0,004268
550,000000	0,003967
549,000000	0,004004
548,000000	0,004110
547,000000	0,004220
546,000000	0,004001
545,000000	0,004264
544,000000	0,004141
543,000000	0,003948
542,000000	0,004208
541,000000	0,004003
540,000000	0,004293
539,000000	0,004107
538,000000	0,004204
537,000000	0,004134
536,000000	0,004168
535,000000	0,004346
534,000000	0,004450
533,000000	0,004435
532,000000	0,004442
531,000000	0,004523
530,000000	0,004382
529,000000	0,004578
528,000000	0,004502
527,000000	0,004483
526,000000	0,004716
525,000000	0,004110
524,000000	0,004533
523,000000	0,004823
522,000000	0,004540
521,000000	0,004781
520,000000	0,004653
519,000000	0,004865
518,000000	0,004443
517,000000	0,004962
516,000000	0,004756
515,000000	0,004933
514,000000	0,005136
513,000000	0,005341
512,000000	0,005034
511,000000	0,005059
510,000000	0,005052
509,000000	0,005140
508,000000	0,005418
507,000000	0,005010
506,000000	0,005155
505,000000	0,005387
504,000000	0,005454
503,000000	0,005459
502,000000	0,005521
501,000000	0,005584
500,000000	0,005330
499,000000	0,005359
498,000000	0,005761
497,000000	0,005746
496,000000	0,005835
495,000000	0,005840
494,000000	0,005919
493,000000	0,005964
492,000000	0,005852
491,000000	0,005962
490,000000	0,005885
489,000000	0,006405
488,000000	0,006165
487,000000	0,006356
486,000000	0,006521
485,000000	0,006055
484,000000	0,006540
483,000000	0,006694
482,000000	0,006586
481,000000	0,006771
480,000000	0,006907
479,000000	0,006991
478,000000	0,007134
477,000000	0,007247
476,000000	0,007131
475,000000	0,006919
474,000000	0,007565
473,000000	0,007963
472,000000	0,007494
471,000000	0,007812
470,000000	0,008150
469,000000	0,008480
468,000000	0,008097
467,000000	0,008330
466,000000	0,008196
465,000000	0,008792
464,000000	0,008570
463,000000	0,008945
462,000000	0,009273
461,000000	0,009593
460,000000	0,009493
459,000000	0,009604
458,000000	0,009803
457,000000	0,009664
456,000000	0,010142
455,000000	0,010069
454,000000	0,010303
453,000000	0,010189
452,000000	0,010960
451,000000	0,011406
450,000000	0,011137
449,000000	0,011373
448,000000	0,011586
447,000000	0,011438
446,000000	0,011884
445,000000	0,011923
444,000000	0,012112
443,000000	0,012279
442,000000	0,012564
441,000000	0,012710
440,000000	0,012900
439,000000	0,013555
438,000000	0,013429
437,000000	0,013840
436,000000	0,013606
435,000000	0,014837
434,000000	0,014937
433,000000	0,015409
432,000000	0,015734
431,000000	0,015400
430,000000	0,015525
429,000000	0,015985
428,000000	0,016580
427,000000	0,017349
426,000000	0,017891
425,000000	0,018510
424,000000	0,018899
423,000000	0,019865
422,000000	0,020696
421,000000	0,019029
420,000000	0,020489
419,000000	0,021768
418,000000	0,022998
417,000000	0,024406
416,000000	0,026522
415,000000	0,028616
414,000000	0,030740
413,000000	0,033086
412,000000	0,036768
411,000000	0,040107
410,000000	0,043594
409,000000	0,047736
408,000000	0,052282
407,000000	0,057110
406,000000	0,062226
405,000000	0,068206
404,000000	0,074141
403,000000	0,081042
402,000000	0,088436
401,000000	0,096875
400,000000	0,105790
399,000000	0,115499
398,000000	0,124734
397,000000	0,135489
396,000000	0,146439
395,000000	0,158912
394,000000	0,171838
393,000000	0,185479
392,000000	0,201080
391,000000	0,216201
390,000000	0,232333
