PE UV       SUBTECH     SPECTRUM    ASCII       PEDS        4.00        
   -1
21.Sample.Raw.asc
20/10/05
16:01:17.00
20/10/05
16:01:17.00
Analyst

390,000000
1
Lambda 25
501s11081509
PerkinElmer UV WinLab 6.0.3.0730 / Lambda25 1.27

480
2
1
0
0
Both on
1
1
1
None
0
0
0
0
 
 
0
0
0
0
0
 
 
 
0
 
0
326
0
 
0
 
 
 
0
0
0
 
0
 
 
 
0
 
 
0
0
0
0
0
 
 
 
 
0
0


#HDR
-1
-1
#GR
nm
A
1.0
0.0
700,000000
-1,000000
311
8
0,012483
0,001104
#DATA
700,000000	0,001346
699,000000	0,001541
698,000000	0,001557
697,000000	0,001315
696,000000	0,001311
695,000000	0,001485
694,000000	0,001361
693,000000	0,001296
692,000000	0,001547
691,000000	0,001708
690,000000	0,001104
689,000000	0,001594
688,000000	0,001269
687,000000	0,001368
686,000000	0,001549
685,000000	0,001476
684,000000	0,001588
683,000000	0,002359
682,000000	0,002115
681,000000	0,001971
680,000000	0,002269
679,000000	0,002076
678,000000	0,002237
677,000000	0,002294
676,000000	0,002015
675,000000	0,002313
674,000000	0,002173
673,000000	0,002342
672,000000	0,002058
671,000000	0,002592
670,000000	0,002340
669,000000	0,002332
668,000000	0,002345
667,000000	0,002304
666,000000	0,002333
665,000000	0,002362
664,000000	0,002442
663,000000	0,002243
662,000000	0,002542
661,000000	0,002559
660,000000	0,002585
659,000000	0,002220
658,000000	0,002523
657,000000	0,002395
656,000000	0,002092
655,000000	0,002247
654,000000	0,002243
653,000000	0,002364
652,000000	0,002189
651,000000	0,002434
650,000000	0,002364
649,000000	0,002281
648,000000	0,002127
647,000000	0,002352
646,000000	0,002298
645,000000	0,002199
644,000000	0,002217
643,000000	0,002466
642,000000	0,002196
641,000000	0,002287
640,000000	0,002213
639,000000	0,002267
638,000000	0,001884
637,000000	0,002480
636,000000	0,002183
635,000000	0,002021
634,000000	0,002318
633,000000	0,002106
632,000000	0,002055
631,000000	0,002064
630,000000	0,002069
629,000000	0,002098
628,000000	0,002310
627,000000	0,002311
626,000000	0,002474
625,000000	0,002349
624,000000	0,002157
623,000000	0,002065
622,000000	0,002149
621,000000	0,002049
620,000000	0,001862
619,000000	0,002183
618,000000	0,002220
617,000000	0,002187
616,000000	0,002187
615,000000	0,002490
614,000000	0,002162
613,000000	0,002007
612,000000	0,002236
611,000000	0,002049
610,000000	0,002058
609,000000	0,002207
608,000000	0,002278
607,000000	0,002386
606,000000	0,002212
605,000000	0,002398
604,000000	0,002389
603,000000	0,002531
602,000000	0,002344
601,000000	0,002542
600,000000	0,002522
599,000000	0,002581
598,000000	0,002427
597,000000	0,002469
596,000000	0,002406
595,000000	0,002582
594,000000	0,002382
593,000000	0,002582
592,000000	0,002637
591,000000	0,002479
590,000000	0,002427
589,000000	0,002712
588,000000	0,002418
587,000000	0,002433
586,000000	0,002468
585,000000	0,002831
584,000000	0,002666
583,000000	0,002392
582,000000	0,002552
581,000000	0,002769
580,000000	0,002803
579,000000	0,002948
578,000000	0,002893
577,000000	0,002718
576,000000	0,003148
575,000000	0,003196
574,000000	0,003092
573,000000	0,003200
572,000000	0,003303
571,000000	0,003080
570,000000	0,003532
569,000000	0,003496
568,000000	0,003535
567,000000	0,003022
566,000000	0,003150
565,000000	0,003179
564,000000	0,003295
563,000000	0,003700
562,000000	0,003422
561,000000	0,003708
560,000000	0,003576
559,000000	0,002793
558,000000	0,003057
557,000000	0,003095
556,000000	0,003041
555,000000	0,003391
554,000000	0,002790
553,000000	0,003061
552,000000	0,002798
551,000000	0,003044
550,000000	0,002875
549,000000	0,003061
548,000000	0,003308
547,000000	0,003081
546,000000	0,003059
545,000000	0,003164
544,000000	0,003063
543,000000	0,003075
542,000000	0,003019
541,000000	0,003304
540,000000	0,003249
539,000000	0,002965
538,000000	0,003075
537,000000	0,003077
536,000000	0,002834
535,000000	0,003012
534,000000	0,003261
533,000000	0,003241
532,000000	0,003304
531,000000	0,003636
530,000000	0,003244
529,000000	0,003308
528,000000	0,003117
527,000000	0,003452
526,000000	0,003527
525,000000	0,003100
524,000000	0,003464
523,000000	0,003659
522,000000	0,003206
521,000000	0,003379
520,000000	0,003413
519,000000	0,003412
518,000000	0,003242
517,000000	0,003211
516,000000	0,003682
515,000000	0,003613
514,000000	0,003777
513,000000	0,003794
512,000000	0,003654
511,000000	0,003747
510,000000	0,003396
509,000000	0,003658
508,000000	0,003711
507,000000	0,003759
506,000000	0,003792
505,000000	0,003914
504,000000	0,003896
503,000000	0,003761
502,000000	0,004014
501,000000	0,003491
500,000000	0,003965
499,000000	0,003865
498,000000	0,004331
497,000000	0,004097
496,000000	0,003759
495,000000	0,004216
494,000000	0,004019
493,000000	0,004166
492,000000	0,003778
491,000000	0,004041
490,000000	0,004402
489,000000	0,004259
488,000000	0,004418
487,000000	0,004248
486,000000	0,004324
485,000000	0,004092
484,000000	0,004412
483,000000	0,004255
482,000000	0,004144
481,000000	0,004439
480,000000	0,004633
479,000000	0,004484
478,000000	0,004818
477,000000	0,004552
476,000000	0,004630
475,000000	0,004206
474,000000	0,004835
473,000000	0,005278
472,000000	0,004585
471,000000	0,004878
470,000000	0,005341
469,000000	0,005302
468,000000	0,005243
467,000000	0,005225
466,000000	0,005247
465,000000	0,005161
464,000000	0,005258
463,000000	0,005604
462,000000	0,005770
461,000000	0,006001
460,000000	0,005638
459,000000	0,005797
458,000000	0,006058
457,000000	0,005948
456,000000	0,005957
455,000000	0,006136
454,000000	0,006308
453,000000	0,006265
452,000000	0,006380
451,000000	0,006993
450,000000	0,006831
449,000000	0,006663
448,000000	0,007239
447,000000	0,006795
446,000000	0,007065
445,000000	0,007496
444,000000	0,007490
443,000000	0,007595
442,000000	0,007831
441,000000	0,007856
440,000000	0,007916
439,000000	0,007776
438,000000	0,008161
437,000000	0,007898
436,000000	0,007891
435,000000	0,008390
434,000000	0,009002
433,000000	0,008731
432,000000	0,009228
431,000000	0,009113
430,000000	0,008616
429,000000	0,008750
428,000000	0,009036
427,000000	0,009122
426,000000	0,010069
425,000000	0,009957
424,000000	0,010108
423,000000	0,010079
422,000000	0,010205
421,000000	0,007654
420,000000	0,008298
419,000000	0,008672
418,000000	0,008443
417,000000	0,008280
416,000000	0,008602
415,000000	0,008800
414,000000	0,008848
413,000000	0,008773
412,000000	0,009172
411,000000	0,009297
410,000000	0,009260
409,000000	0,009661
408,000000	0,009447
407,000000	0,009593
406,000000	0,009556
405,000000	0,009774
404,000000	0,009478
403,000000	0,009877
402,000000	0,010177
401,000000	0,010196
400,000000	0,010432
399,000000	0,010721
398,000000	0,010562
397,000000	0,010541
396,000000	0,010473
395,000000	0,011193
394,000000	0,011241
393,000000	0,011472
392,000000	0,011997
391,000000	0,012158
390,000000	0,012483
