PE UV       SUBTECH     SPECTRUM    ASCII       PEDS        4.00        
   -1
23.Sample.Raw.asc
20/10/05
15:36:38.00
20/10/05
15:36:38.00
Analyst

390,000000
1
Lambda 25
501s11081509
PerkinElmer UV WinLab 6.0.3.0730 / Lambda25 1.27

480
2
1
0
0
Both on
1
1
1
None
0
0
0
0
 
 
0
0
0
0
0
 
 
 
0
 
0
326
0
 
0
 
 
 
0
0
0
 
0
 
 
 
0
 
 
0
0
0
0
0
 
 
 
 
0
0


#HDR
-1
-1
#GR
nm
A
1.0
0.0
700,000000
-1,000000
311
8
0,401713
0,002693
#DATA
700,000000	0,002722
699,000000	0,002769
698,000000	0,002740
697,000000	0,002738
696,000000	0,002874
695,000000	0,002887
694,000000	0,003012
693,000000	0,002741
692,000000	0,003017
691,000000	0,003174
690,000000	0,002694
689,000000	0,002957
688,000000	0,002807
687,000000	0,003097
686,000000	0,003059
685,000000	0,003210
684,000000	0,003037
683,000000	0,002873
682,000000	0,002960
681,000000	0,002693
680,000000	0,002825
679,000000	0,003125
678,000000	0,002996
677,000000	0,003278
676,000000	0,003119
675,000000	0,003500
674,000000	0,002887
673,000000	0,003289
672,000000	0,003051
671,000000	0,003539
670,000000	0,003629
669,000000	0,003709
668,000000	0,003548
667,000000	0,003647
666,000000	0,003764
665,000000	0,003773
664,000000	0,003650
663,000000	0,003800
662,000000	0,003738
661,000000	0,004050
660,000000	0,004089
659,000000	0,003829
658,000000	0,004262
657,000000	0,003933
656,000000	0,003660
655,000000	0,004036
654,000000	0,004133
653,000000	0,003837
652,000000	0,003867
651,000000	0,004501
650,000000	0,004100
649,000000	0,004311
648,000000	0,004387
647,000000	0,004294
646,000000	0,004463
645,000000	0,004505
644,000000	0,004496
643,000000	0,004506
642,000000	0,004562
641,000000	0,004624
640,000000	0,004433
639,000000	0,004504
638,000000	0,004405
637,000000	0,004701
636,000000	0,004846
635,000000	0,004873
634,000000	0,004745
633,000000	0,004670
632,000000	0,004817
631,000000	0,004729
630,000000	0,004734
629,000000	0,004827
628,000000	0,005040
627,000000	0,005164
626,000000	0,005155
625,000000	0,005050
624,000000	0,005110
623,000000	0,005131
622,000000	0,005233
621,000000	0,005036
620,000000	0,004885
619,000000	0,005272
618,000000	0,005331
617,000000	0,005495
616,000000	0,005499
615,000000	0,006062
614,000000	0,005381
613,000000	0,005902
612,000000	0,005804
611,000000	0,005647
610,000000	0,005752
609,000000	0,006082
608,000000	0,006179
607,000000	0,006311
606,000000	0,006088
605,000000	0,006390
604,000000	0,006626
603,000000	0,006639
602,000000	0,006474
601,000000	0,006820
600,000000	0,006725
599,000000	0,006603
598,000000	0,006570
597,000000	0,006732
596,000000	0,006706
595,000000	0,006900
594,000000	0,006831
593,000000	0,007004
592,000000	0,007233
591,000000	0,006961
590,000000	0,007030
589,000000	0,007252
588,000000	0,006936
587,000000	0,007147
586,000000	0,007409
585,000000	0,007545
584,000000	0,007482
583,000000	0,007629
582,000000	0,007522
581,000000	0,007741
580,000000	0,007893
579,000000	0,007963
578,000000	0,007866
577,000000	0,007930
576,000000	0,008123
575,000000	0,008261
574,000000	0,008396
573,000000	0,008529
572,000000	0,008579
571,000000	0,008593
570,000000	0,008720
569,000000	0,008876
568,000000	0,008949
567,000000	0,009055
566,000000	0,008836
565,000000	0,009033
564,000000	0,009172
563,000000	0,009388
562,000000	0,009818
561,000000	0,009408
560,000000	0,010075
559,000000	0,009913
558,000000	0,010436
557,000000	0,010334
556,000000	0,010507
555,000000	0,011034
554,000000	0,010592
553,000000	0,011185
552,000000	0,011245
551,000000	0,011345
550,000000	0,011185
549,000000	0,011528
548,000000	0,011354
547,000000	0,012148
546,000000	0,011839
545,000000	0,012353
544,000000	0,012360
543,000000	0,012558
542,000000	0,012693
541,000000	0,012860
540,000000	0,012969
539,000000	0,013094
538,000000	0,013080
537,000000	0,013246
536,000000	0,013592
535,000000	0,013886
534,000000	0,014380
533,000000	0,014080
532,000000	0,014411
531,000000	0,014537
530,000000	0,014730
529,000000	0,015162
528,000000	0,015281
527,000000	0,015675
526,000000	0,015804
525,000000	0,015560
524,000000	0,016175
523,000000	0,016516
522,000000	0,016388
521,000000	0,016772
520,000000	0,016997
519,000000	0,017284
518,000000	0,017367
517,000000	0,017823
516,000000	0,017865
515,000000	0,018408
514,000000	0,018559
513,000000	0,018982
512,000000	0,018733
511,000000	0,019205
510,000000	0,019348
509,000000	0,019441
508,000000	0,020057
507,000000	0,019898
506,000000	0,020453
505,000000	0,020760
504,000000	0,021070
503,000000	0,021153
502,000000	0,021746
501,000000	0,021643
500,000000	0,022172
499,000000	0,021906
498,000000	0,022643
497,000000	0,023035
496,000000	0,022949
495,000000	0,023279
494,000000	0,024115
493,000000	0,024452
492,000000	0,024034
491,000000	0,024410
490,000000	0,024887
489,000000	0,025507
488,000000	0,025630
487,000000	0,026060
486,000000	0,026594
485,000000	0,026766
484,000000	0,027217
483,000000	0,027410
482,000000	0,028157
481,000000	0,028172
480,000000	0,028563
479,000000	0,028903
478,000000	0,029649
477,000000	0,029865
476,000000	0,030192
475,000000	0,030020
474,000000	0,030856
473,000000	0,031531
472,000000	0,031209
471,000000	0,032035
470,000000	0,032478
469,000000	0,033090
468,000000	0,032929
467,000000	0,033460
466,000000	0,033606
465,000000	0,034189
464,000000	0,034691
463,000000	0,035128
462,000000	0,035507
461,000000	0,036469
460,000000	0,036720
459,000000	0,037021
458,000000	0,037421
457,000000	0,038202
456,000000	0,038598
455,000000	0,039003
454,000000	0,039409
453,000000	0,039971
452,000000	0,040576
451,000000	0,041469
450,000000	0,041977
449,000000	0,042636
448,000000	0,043062
447,000000	0,043612
446,000000	0,044367
445,000000	0,045152
444,000000	0,045752
443,000000	0,046422
442,000000	0,047170
441,000000	0,047665
440,000000	0,048592
439,000000	0,049618
438,000000	0,050547
437,000000	0,050920
436,000000	0,051663
435,000000	0,052841
434,000000	0,054598
433,000000	0,054834
432,000000	0,056135
431,000000	0,056309
430,000000	0,057499
429,000000	0,059025
428,000000	0,059649
427,000000	0,060764
426,000000	0,062383
425,000000	0,063209
424,000000	0,064421
423,000000	0,065177
422,000000	0,066765
421,000000	0,067254
420,000000	0,068700
419,000000	0,070214
418,000000	0,071154
417,000000	0,072088
416,000000	0,073642
415,000000	0,075063
414,000000	0,076473
413,000000	0,077840
412,000000	0,079678
411,000000	0,081542
410,000000	0,083205
409,000000	0,085420
408,000000	0,087287
407,000000	0,089423
406,000000	0,092226
405,000000	0,095088
404,000000	0,098514
403,000000	0,102697
402,000000	0,107389
401,000000	0,113312
400,000000	0,120209
399,000000	0,128794
398,000000	0,138547
397,000000	0,150297
396,000000	0,165563
395,000000	0,185516
394,000000	0,210636
393,000000	0,242159
392,000000	0,285816
391,000000	0,337399
390,000000	0,401713
