PE UV       SUBTECH     SPECTRUM    ASCII       PEDS        4.00        
   -1
3.Sample.Raw.asc
20/10/05
15:46:52.00
20/10/05
15:46:52.00
Analyst

390,000000
1
Lambda 25
501s11081509
PerkinElmer UV WinLab 6.0.3.0730 / Lambda25 1.27

480
2
1
0
0
Both on
1
1
1
None
0
0
0
0
 
 
0
0
0
0
0
 
 
 
0
 
0
326
0
 
0
 
 
 
0
0
0
 
0
 
 
 
0
 
 
0
0
0
0
0
 
 
 
 
0
0


#HDR
-1
-1
#GR
nm
A
1.0
0.0
700,000000
-1,000000
311
8
0,338586
0,005962
#DATA
700,000000	0,006067
699,000000	0,006008
698,000000	0,006167
697,000000	0,005996
696,000000	0,005962
695,000000	0,006335
694,000000	0,006257
693,000000	0,006173
692,000000	0,006506
691,000000	0,006781
690,000000	0,006318
689,000000	0,006615
688,000000	0,006374
687,000000	0,006804
686,000000	0,007025
685,000000	0,006929
684,000000	0,006865
683,000000	0,007647
682,000000	0,007489
681,000000	0,007675
680,000000	0,007845
679,000000	0,007774
678,000000	0,007873
677,000000	0,008145
676,000000	0,007880
675,000000	0,008083
674,000000	0,008130
673,000000	0,008553
672,000000	0,008093
671,000000	0,008612
670,000000	0,008925
669,000000	0,008599
668,000000	0,008500
667,000000	0,008757
666,000000	0,009001
665,000000	0,009045
664,000000	0,009163
663,000000	0,009207
662,000000	0,009579
661,000000	0,009620
660,000000	0,009607
659,000000	0,009326
658,000000	0,009771
657,000000	0,009828
656,000000	0,009627
655,000000	0,009954
654,000000	0,009808
653,000000	0,010126
652,000000	0,010053
651,000000	0,010286
650,000000	0,010402
649,000000	0,010274
648,000000	0,010500
647,000000	0,010661
646,000000	0,010850
645,000000	0,011023
644,000000	0,011000
643,000000	0,011199
642,000000	0,011067
641,000000	0,011162
640,000000	0,011226
639,000000	0,011562
638,000000	0,011353
637,000000	0,011868
636,000000	0,011933
635,000000	0,012077
634,000000	0,012259
633,000000	0,012153
632,000000	0,012455
631,000000	0,012444
630,000000	0,012498
629,000000	0,012524
628,000000	0,012937
627,000000	0,013088
626,000000	0,013213
625,000000	0,013412
624,000000	0,013358
623,000000	0,013372
622,000000	0,013627
621,000000	0,013655
620,000000	0,013879
619,000000	0,014182
618,000000	0,014328
617,000000	0,014492
616,000000	0,014837
615,000000	0,015150
614,000000	0,014883
613,000000	0,015271
612,000000	0,015384
611,000000	0,015922
610,000000	0,015814
609,000000	0,016354
608,000000	0,016418
607,000000	0,016813
606,000000	0,016742
605,000000	0,017191
604,000000	0,017345
603,000000	0,017221
602,000000	0,017717
601,000000	0,017918
600,000000	0,018283
599,000000	0,018513
598,000000	0,018455
597,000000	0,018801
596,000000	0,018995
595,000000	0,019160
594,000000	0,019293
593,000000	0,019840
592,000000	0,019978
591,000000	0,020215
590,000000	0,020600
589,000000	0,020888
588,000000	0,021010
587,000000	0,021045
586,000000	0,021437
585,000000	0,021841
584,000000	0,022242
583,000000	0,022411
582,000000	0,022755
581,000000	0,023016
580,000000	0,023352
579,000000	0,023660
578,000000	0,023893
577,000000	0,024172
576,000000	0,024544
575,000000	0,025157
574,000000	0,025387
573,000000	0,025877
572,000000	0,026137
571,000000	0,026375
570,000000	0,026952
569,000000	0,026977
568,000000	0,027581
567,000000	0,027704
566,000000	0,028113
565,000000	0,028443
564,000000	0,029222
563,000000	0,029360
562,000000	0,029688
561,000000	0,030169
560,000000	0,030701
559,000000	0,030722
558,000000	0,031381
557,000000	0,031462
556,000000	0,031963
555,000000	0,032770
554,000000	0,032667
553,000000	0,033142
552,000000	0,033560
551,000000	0,034272
550,000000	0,034569
549,000000	0,035347
548,000000	0,035593
547,000000	0,036290
546,000000	0,036378
545,000000	0,036995
544,000000	0,037387
543,000000	0,038201
542,000000	0,038564
541,000000	0,039180
540,000000	0,039612
539,000000	0,040013
538,000000	0,040342
537,000000	0,040617
536,000000	0,041324
535,000000	0,042020
534,000000	0,042820
533,000000	0,043308
532,000000	0,044089
531,000000	0,044473
530,000000	0,044963
529,000000	0,045664
528,000000	0,046128
527,000000	0,046775
526,000000	0,047490
525,000000	0,047823
524,000000	0,048955
523,000000	0,049687
522,000000	0,049945
521,000000	0,050895
520,000000	0,051437
519,000000	0,052199
518,000000	0,052801
517,000000	0,053790
516,000000	0,054608
515,000000	0,055255
514,000000	0,056360
513,000000	0,057023
512,000000	0,057607
511,000000	0,058471
510,000000	0,058991
509,000000	0,059617
508,000000	0,061073
507,000000	0,061335
506,000000	0,062546
505,000000	0,063387
504,000000	0,064155
503,000000	0,064916
502,000000	0,065924
501,000000	0,066631
500,000000	0,067838
499,000000	0,068427
498,000000	0,069608
497,000000	0,070901
496,000000	0,071615
495,000000	0,072813
494,000000	0,073740
493,000000	0,074835
492,000000	0,075432
491,000000	0,076496
490,000000	0,077696
489,000000	0,079012
488,000000	0,080157
487,000000	0,081491
486,000000	0,082693
485,000000	0,083368
484,000000	0,084707
483,000000	0,086054
482,000000	0,087149
481,000000	0,088499
480,000000	0,089382
479,000000	0,091152
478,000000	0,092493
477,000000	0,093576
476,000000	0,094987
475,000000	0,095836
474,000000	0,097774
473,000000	0,099379
472,000000	0,100014
471,000000	0,101748
470,000000	0,103489
469,000000	0,104841
468,000000	0,106509
467,000000	0,107882
466,000000	0,109318
465,000000	0,110890
464,000000	0,112568
463,000000	0,114231
462,000000	0,115721
461,000000	0,117714
460,000000	0,119321
459,000000	0,121316
458,000000	0,123361
457,000000	0,124963
456,000000	0,126669
455,000000	0,128322
454,000000	0,130346
453,000000	0,131968
452,000000	0,133658
451,000000	0,136518
450,000000	0,137915
449,000000	0,139983
448,000000	0,142412
447,000000	0,144349
446,000000	0,145780
445,000000	0,148256
444,000000	0,150456
443,000000	0,152623
442,000000	0,155424
441,000000	0,157298
440,000000	0,159890
439,000000	0,162115
438,000000	0,164675
437,000000	0,166799
436,000000	0,169000
435,000000	0,172226
434,000000	0,174564
433,000000	0,177357
432,000000	0,180586
431,000000	0,182664
430,000000	0,186169
429,000000	0,189090
428,000000	0,192407
427,000000	0,195052
426,000000	0,198925
425,000000	0,201193
424,000000	0,204598
423,000000	0,208450
422,000000	0,211604
421,000000	0,207806
420,000000	0,211424
419,000000	0,215026
418,000000	0,218046
417,000000	0,221298
416,000000	0,224503
415,000000	0,228084
414,000000	0,231626
413,000000	0,234989
412,000000	0,239117
411,000000	0,242777
410,000000	0,246554
409,000000	0,250678
408,000000	0,254283
407,000000	0,258058
406,000000	0,262208
405,000000	0,266413
404,000000	0,270336
403,000000	0,274524
402,000000	0,279362
401,000000	0,283869
400,000000	0,289116
399,000000	0,294035
398,000000	0,298085
397,000000	0,302740
396,000000	0,307258
395,000000	0,312324
394,000000	0,317434
393,000000	0,322405
392,000000	0,328264
391,000000	0,333232
390,000000	0,338586
