PE UV       SUBTECH     SPECTRUM    ASCII       PEDS        4.00        
   -1
32.Sample.Raw.asc
20/10/05
15:38:48.00
20/10/05
15:38:48.00
Analyst

390,000000
1
Lambda 25
501s11081509
PerkinElmer UV WinLab 6.0.3.0730 / Lambda25 1.27

480
2
1
0
0
Both on
1
1
1
None
0
0
0
0
 
 
0
0
0
0
0
 
 
 
0
 
0
326
0
 
0
 
 
 
0
0
0
 
0
 
 
 
0
 
 
0
0
0
0
0
 
 
 
 
0
0


#HDR
-1
-1
#GR
nm
A
1.0
0.0
700,000000
-1,000000
311
8
0,010669
0,000388
#DATA
700,000000	0,000701
699,000000	0,000702
698,000000	0,000948
697,000000	0,000558
696,000000	0,000747
695,000000	0,000723
694,000000	0,000694
693,000000	0,000456
692,000000	0,000859
691,000000	0,000999
690,000000	0,000391
689,000000	0,000609
688,000000	0,000486
687,000000	0,000646
686,000000	0,000877
685,000000	0,000725
684,000000	0,000816
683,000000	0,000507
682,000000	0,000639
681,000000	0,000388
680,000000	0,000511
679,000000	0,000727
678,000000	0,000871
677,000000	0,000896
676,000000	0,000835
675,000000	0,000694
674,000000	0,000558
673,000000	0,000975
672,000000	0,000637
671,000000	0,000735
670,000000	0,000980
669,000000	0,000773
668,000000	0,000918
667,000000	0,001154
666,000000	0,001088
665,000000	0,001192
664,000000	0,000898
663,000000	0,000985
662,000000	0,000911
661,000000	0,001081
660,000000	0,001106
659,000000	0,000704
658,000000	0,001052
657,000000	0,001148
656,000000	0,000767
655,000000	0,000862
654,000000	0,000821
653,000000	0,000838
652,000000	0,000879
651,000000	0,001020
650,000000	0,000971
649,000000	0,000784
648,000000	0,000747
647,000000	0,001041
646,000000	0,000855
645,000000	0,000818
644,000000	0,000893
643,000000	0,000872
642,000000	0,000718
641,000000	0,000739
640,000000	0,000818
639,000000	0,000797
638,000000	0,000598
637,000000	0,000777
636,000000	0,001059
635,000000	0,001117
634,000000	0,000710
633,000000	0,000810
632,000000	0,000977
631,000000	0,000997
630,000000	0,000914
629,000000	0,000898
628,000000	0,001056
627,000000	0,000902
626,000000	0,001135
625,000000	0,000973
624,000000	0,000873
623,000000	0,000748
622,000000	0,000828
621,000000	0,000774
620,000000	0,000561
619,000000	0,000969
618,000000	0,000915
617,000000	0,000911
616,000000	0,000915
615,000000	0,001326
614,000000	0,001153
613,000000	0,001106
612,000000	0,001169
611,000000	0,001011
610,000000	0,001119
609,000000	0,001231
608,000000	0,001260
607,000000	0,001239
606,000000	0,001011
605,000000	0,001351
604,000000	0,001197
603,000000	0,001306
602,000000	0,001460
601,000000	0,001521
600,000000	0,001480
599,000000	0,001351
598,000000	0,001372
597,000000	0,001210
596,000000	0,001280
595,000000	0,001218
594,000000	0,001044
593,000000	0,001281
592,000000	0,001535
591,000000	0,001507
590,000000	0,001174
589,000000	0,001312
588,000000	0,001084
587,000000	0,001261
586,000000	0,001253
585,000000	0,001543
584,000000	0,001620
583,000000	0,001245
582,000000	0,001432
581,000000	0,001450
580,000000	0,001207
579,000000	0,001368
578,000000	0,001184
577,000000	0,001452
576,000000	0,001546
575,000000	0,001504
574,000000	0,001611
573,000000	0,001726
572,000000	0,001494
571,000000	0,001537
570,000000	0,001605
569,000000	0,001589
568,000000	0,001662
567,000000	0,001447
566,000000	0,001430
565,000000	0,001540
564,000000	0,001506
563,000000	0,001251
562,000000	0,001943
561,000000	0,001655
560,000000	0,001591
559,000000	0,001454
558,000000	0,001615
557,000000	0,001708
556,000000	0,001569
555,000000	0,001975
554,000000	0,001633
553,000000	0,001785
552,000000	0,001747
551,000000	0,001746
550,000000	0,001628
549,000000	0,001496
548,000000	0,001674
547,000000	0,001835
546,000000	0,001852
545,000000	0,002029
544,000000	0,002008
543,000000	0,001885
542,000000	0,001931
541,000000	0,002029
540,000000	0,001791
539,000000	0,001660
538,000000	0,001766
537,000000	0,001627
536,000000	0,001542
535,000000	0,001889
534,000000	0,002236
533,000000	0,001970
532,000000	0,001918
531,000000	0,002134
530,000000	0,002164
529,000000	0,002062
528,000000	0,002360
527,000000	0,002125
526,000000	0,002163
525,000000	0,001846
524,000000	0,002286
523,000000	0,002278
522,000000	0,002067
521,000000	0,002218
520,000000	0,002202
519,000000	0,002298
518,000000	0,001976
517,000000	0,002192
516,000000	0,002208
515,000000	0,002496
514,000000	0,002550
513,000000	0,002461
512,000000	0,002499
511,000000	0,002384
510,000000	0,002334
509,000000	0,002359
508,000000	0,002518
507,000000	0,002333
506,000000	0,002286
505,000000	0,002327
504,000000	0,002678
503,000000	0,002412
502,000000	0,002656
501,000000	0,002762
500,000000	0,002477
499,000000	0,002364
498,000000	0,002996
497,000000	0,002745
496,000000	0,002654
495,000000	0,002931
494,000000	0,002389
493,000000	0,002845
492,000000	0,002796
491,000000	0,002584
490,000000	0,002751
489,000000	0,003239
488,000000	0,003050
487,000000	0,002877
486,000000	0,002990
485,000000	0,002763
484,000000	0,003044
483,000000	0,002880
482,000000	0,002989
481,000000	0,003347
480,000000	0,003397
479,000000	0,003076
478,000000	0,003434
477,000000	0,003355
476,000000	0,003538
475,000000	0,003148
474,000000	0,003363
473,000000	0,004067
472,000000	0,003153
471,000000	0,003942
470,000000	0,004060
469,000000	0,003821
468,000000	0,004079
467,000000	0,003746
466,000000	0,003648
465,000000	0,003847
464,000000	0,003781
463,000000	0,004156
462,000000	0,003975
461,000000	0,004402
460,000000	0,004145
459,000000	0,004583
458,000000	0,004554
457,000000	0,004336
456,000000	0,004755
455,000000	0,004245
454,000000	0,004569
453,000000	0,004470
452,000000	0,004517
451,000000	0,005004
450,000000	0,005316
449,000000	0,004904
448,000000	0,005324
447,000000	0,005141
446,000000	0,005088
445,000000	0,005259
444,000000	0,005036
443,000000	0,005457
442,000000	0,005722
441,000000	0,005451
440,000000	0,005721
439,000000	0,006008
438,000000	0,006403
437,000000	0,005605
436,000000	0,005568
435,000000	0,006439
434,000000	0,006564
433,000000	0,006245
432,000000	0,006771
431,000000	0,006276
430,000000	0,006122
429,000000	0,006391
428,000000	0,006701
427,000000	0,007008
426,000000	0,007580
425,000000	0,007214
424,000000	0,007600
423,000000	0,007592
422,000000	0,007682
421,000000	0,007781
420,000000	0,007690
419,000000	0,008120
418,000000	0,007847
417,000000	0,007845
416,000000	0,008093
415,000000	0,008335
414,000000	0,008413
413,000000	0,007976
412,000000	0,008654
411,000000	0,008609
410,000000	0,008829
409,000000	0,008786
408,000000	0,008754
407,000000	0,008826
406,000000	0,008876
405,000000	0,008894
404,000000	0,008851
403,000000	0,009197
402,000000	0,009232
401,000000	0,009072
400,000000	0,009613
399,000000	0,009548
398,000000	0,009499
397,000000	0,009631
396,000000	0,009632
395,000000	0,010151
394,000000	0,010112
393,000000	0,009820
392,000000	0,010583
391,000000	0,010443
390,000000	0,010669
