PE UV       SUBTECH     SPECTRUM    ASCII       PEDS        4.00        
   -1
37.Sample.Raw.asc
20/10/05
15:40:49.00
20/10/05
15:40:49.00
Analyst

390,000000
1
Lambda 25
501s11081509
PerkinElmer UV WinLab 6.0.3.0730 / Lambda25 1.27

480
2
1
0
0
Both on
1
1
1
None
0
0
0
0
 
 
0
0
0
0
0
 
 
 
0
 
0
326
0
 
0
 
 
 
0
0
0
 
0
 
 
 
0
 
 
0
0
0
0
0
 
 
 
 
0
0


#HDR
-1
-1
#GR
nm
A
1.0
0.0
700,000000
-1,000000
311
8
1,352406
0,011967
#DATA
700,000000	0,011967
699,000000	0,012214
698,000000	0,012203
697,000000	0,012016
696,000000	0,012062
695,000000	0,012130
694,000000	0,012271
693,000000	0,012182
692,000000	0,012374
691,000000	0,012687
690,000000	0,012309
689,000000	0,012557
688,000000	0,012378
687,000000	0,012534
686,000000	0,012820
685,000000	0,012701
684,000000	0,012758
683,000000	0,012826
682,000000	0,012800
681,000000	0,012601
680,000000	0,012899
679,000000	0,012787
678,000000	0,013180
677,000000	0,013199
676,000000	0,012868
675,000000	0,013272
674,000000	0,013211
673,000000	0,013233
672,000000	0,013075
671,000000	0,013592
670,000000	0,013439
669,000000	0,013331
668,000000	0,013493
667,000000	0,013420
666,000000	0,013457
665,000000	0,013643
664,000000	0,013398
663,000000	0,013490
662,000000	0,013648
661,000000	0,013933
660,000000	0,013818
659,000000	0,013644
658,000000	0,013969
657,000000	0,013817
656,000000	0,013596
655,000000	0,013542
654,000000	0,013609
653,000000	0,013853
652,000000	0,013626
651,000000	0,014098
650,000000	0,014127
649,000000	0,014012
648,000000	0,014078
647,000000	0,013918
646,000000	0,014217
645,000000	0,014181
644,000000	0,014032
643,000000	0,014223
642,000000	0,014352
641,000000	0,014447
640,000000	0,014418
639,000000	0,014413
638,000000	0,014200
637,000000	0,014524
636,000000	0,014889
635,000000	0,014726
634,000000	0,014751
633,000000	0,014679
632,000000	0,014893
631,000000	0,014886
630,000000	0,014786
629,000000	0,015023
628,000000	0,015115
627,000000	0,014893
626,000000	0,015135
625,000000	0,015077
624,000000	0,015204
623,000000	0,014810
622,000000	0,015173
621,000000	0,015059
620,000000	0,015254
619,000000	0,015123
618,000000	0,015645
617,000000	0,015473
616,000000	0,015607
615,000000	0,016157
614,000000	0,015692
613,000000	0,015482
612,000000	0,016030
611,000000	0,015685
610,000000	0,015866
609,000000	0,015996
608,000000	0,016082
607,000000	0,016348
606,000000	0,015992
605,000000	0,016397
604,000000	0,016236
603,000000	0,016237
602,000000	0,016508
601,000000	0,016821
600,000000	0,016525
599,000000	0,016585
598,000000	0,016998
597,000000	0,016751
596,000000	0,016702
595,000000	0,016867
594,000000	0,016596
593,000000	0,017050
592,000000	0,017035
591,000000	0,017343
590,000000	0,017108
589,000000	0,017402
588,000000	0,017145
587,000000	0,016972
586,000000	0,017341
585,000000	0,017339
584,000000	0,017382
583,000000	0,017473
582,000000	0,017452
581,000000	0,017806
580,000000	0,017535
579,000000	0,017643
578,000000	0,017825
577,000000	0,017997
576,000000	0,017869
575,000000	0,017994
574,000000	0,018127
573,000000	0,018187
572,000000	0,018467
571,000000	0,018254
570,000000	0,018576
569,000000	0,018211
568,000000	0,018478
567,000000	0,018176
566,000000	0,018089
565,000000	0,018457
564,000000	0,018577
563,000000	0,018854
562,000000	0,019168
561,000000	0,018901
560,000000	0,018937
559,000000	0,019066
558,000000	0,019541
557,000000	0,019560
556,000000	0,019393
555,000000	0,019773
554,000000	0,019293
553,000000	0,019575
552,000000	0,019581
551,000000	0,019993
550,000000	0,019720
549,000000	0,020101
548,000000	0,019905
547,000000	0,020189
546,000000	0,020236
545,000000	0,020286
544,000000	0,020269
543,000000	0,020442
542,000000	0,020552
541,000000	0,020974
540,000000	0,020788
539,000000	0,020728
538,000000	0,020752
537,000000	0,020753
536,000000	0,020891
535,000000	0,020961
534,000000	0,021339
533,000000	0,021414
532,000000	0,021638
531,000000	0,021836
530,000000	0,021642
529,000000	0,021579
528,000000	0,021723
527,000000	0,022142
526,000000	0,022022
525,000000	0,021909
524,000000	0,022368
523,000000	0,022540
522,000000	0,022160
521,000000	0,022684
520,000000	0,022686
519,000000	0,022890
518,000000	0,022606
517,000000	0,022745
516,000000	0,022778
515,000000	0,023293
514,000000	0,023560
513,000000	0,023689
512,000000	0,023336
511,000000	0,023598
510,000000	0,023353
509,000000	0,023485
508,000000	0,024059
507,000000	0,023949
506,000000	0,024251
505,000000	0,024349
504,000000	0,024594
503,000000	0,024474
502,000000	0,024788
501,000000	0,024872
500,000000	0,025073
499,000000	0,024736
498,000000	0,025532
497,000000	0,025577
496,000000	0,025649
495,000000	0,025726
494,000000	0,025776
493,000000	0,026082
492,000000	0,025917
491,000000	0,026152
490,000000	0,026634
489,000000	0,027144
488,000000	0,026861
487,000000	0,026997
486,000000	0,027438
485,000000	0,027231
484,000000	0,027561
483,000000	0,027718
482,000000	0,027870
481,000000	0,027935
480,000000	0,028442
479,000000	0,028809
478,000000	0,028918
477,000000	0,029515
476,000000	0,029531
475,000000	0,029175
474,000000	0,029890
473,000000	0,030483
472,000000	0,030001
471,000000	0,030687
470,000000	0,031127
469,000000	0,031493
468,000000	0,031368
467,000000	0,031593
466,000000	0,031750
465,000000	0,032404
464,000000	0,032439
463,000000	0,033255
462,000000	0,033440
461,000000	0,034156
460,000000	0,034381
459,000000	0,034747
458,000000	0,035387
457,000000	0,035874
456,000000	0,036727
455,000000	0,037060
454,000000	0,037631
453,000000	0,038096
452,000000	0,038769
451,000000	0,040044
450,000000	0,040586
449,000000	0,041461
448,000000	0,042399
447,000000	0,043420
446,000000	0,044982
445,000000	0,046452
444,000000	0,048315
443,000000	0,049891
442,000000	0,051862
441,000000	0,053772
440,000000	0,056509
439,000000	0,059574
438,000000	0,062805
437,000000	0,066989
436,000000	0,071033
435,000000	0,077483
434,000000	0,084295
433,000000	0,092385
432,000000	0,102219
431,000000	0,113209
430,000000	0,128225
429,000000	0,144843
428,000000	0,163773
427,000000	0,184535
426,000000	0,208365
425,000000	0,231886
424,000000	0,261160
423,000000	0,293547
422,000000	0,329162
421,000000	0,364184
420,000000	0,408788
419,000000	0,456548
418,000000	0,508957
417,000000	0,561282
416,000000	0,615229
415,000000	0,675245
414,000000	0,737508
413,000000	0,800416
412,000000	0,867571
411,000000	0,936786
410,000000	1,003112
409,000000	1,067106
408,000000	1,125391
407,000000	1,178396
406,000000	1,224160
405,000000	1,262925
404,000000	1,292619
403,000000	1,315380
402,000000	1,329731
401,000000	1,340918
400,000000	1,350428
399,000000	1,351623
398,000000	1,352153
397,000000	1,352406
396,000000	1,350148
395,000000	1,346770
394,000000	1,346882
393,000000	1,339295
392,000000	1,341832
391,000000	1,338046
390,000000	1,331840
