PE UV       SUBTECH     SPECTRUM    ASCII       PEDS        4.00        
   -1
44.Sample.Raw.asc
20/10/05
15:42:48.00
20/10/05
15:42:48.00
Analyst

390,000000
1
Lambda 25
501s11081509
PerkinElmer UV WinLab 6.0.3.0730 / Lambda25 1.27

480
2
1
0
0
Both on
1
1
1
None
0
0
0
0
 
 
0
0
0
0
0
 
 
 
0
 
0
326
0
 
0
 
 
 
0
0
0
 
0
 
 
 
0
 
 
0
0
0
0
0
 
 
 
 
0
0


#HDR
-1
-1
#GR
nm
A
1.0
0.0
700,000000
-1,000000
311
8
0,019473
0,001657
#DATA
700,000000	0,002153
699,000000	0,001800
698,000000	0,001928
697,000000	0,001657
696,000000	0,001908
695,000000	0,001905
694,000000	0,002037
693,000000	0,001811
692,000000	0,002129
691,000000	0,002224
690,000000	0,001677
689,000000	0,001936
688,000000	0,001723
687,000000	0,001946
686,000000	0,002153
685,000000	0,002034
684,000000	0,001948
683,000000	0,002139
682,000000	0,001958
681,000000	0,001773
680,000000	0,002087
679,000000	0,001926
678,000000	0,002286
677,000000	0,002307
676,000000	0,002239
675,000000	0,002337
674,000000	0,002355
673,000000	0,002326
672,000000	0,002108
671,000000	0,002753
670,000000	0,002419
669,000000	0,002440
668,000000	0,002495
667,000000	0,002815
666,000000	0,002719
665,000000	0,002903
664,000000	0,002621
663,000000	0,002626
662,000000	0,002696
661,000000	0,002921
660,000000	0,002876
659,000000	0,002537
658,000000	0,002919
657,000000	0,002961
656,000000	0,002713
655,000000	0,002738
654,000000	0,002359
653,000000	0,002739
652,000000	0,002514
651,000000	0,002988
650,000000	0,002968
649,000000	0,002865
648,000000	0,003157
647,000000	0,003007
646,000000	0,003041
645,000000	0,003000
644,000000	0,003035
643,000000	0,003109
642,000000	0,002855
641,000000	0,003335
640,000000	0,002906
639,000000	0,003231
638,000000	0,002844
637,000000	0,003194
636,000000	0,003264
635,000000	0,003265
634,000000	0,003200
633,000000	0,003112
632,000000	0,003300
631,000000	0,003401
630,000000	0,003376
629,000000	0,003456
628,000000	0,003506
627,000000	0,003411
626,000000	0,003448
625,000000	0,003683
624,000000	0,003491
623,000000	0,003441
622,000000	0,003621
621,000000	0,003530
620,000000	0,003584
619,000000	0,003873
618,000000	0,003710
617,000000	0,003727
616,000000	0,003874
615,000000	0,004331
614,000000	0,003940
613,000000	0,004007
612,000000	0,004228
611,000000	0,003941
610,000000	0,004025
609,000000	0,004493
608,000000	0,004098
607,000000	0,004512
606,000000	0,004238
605,000000	0,004377
604,000000	0,004561
603,000000	0,004658
602,000000	0,004406
601,000000	0,004584
600,000000	0,004614
599,000000	0,004237
598,000000	0,004435
597,000000	0,004453
596,000000	0,004419
595,000000	0,004448
594,000000	0,004424
593,000000	0,004307
592,000000	0,004631
591,000000	0,004372
590,000000	0,004195
589,000000	0,004301
588,000000	0,003979
587,000000	0,004051
586,000000	0,004335
585,000000	0,004447
584,000000	0,004381
583,000000	0,004383
582,000000	0,004246
581,000000	0,004669
580,000000	0,004569
579,000000	0,004636
578,000000	0,004583
577,000000	0,004536
576,000000	0,004628
575,000000	0,004584
574,000000	0,004485
573,000000	0,004525
572,000000	0,004659
571,000000	0,004709
570,000000	0,005048
569,000000	0,004708
568,000000	0,004594
567,000000	0,004620
566,000000	0,004475
565,000000	0,004478
564,000000	0,004649
563,000000	0,004730
562,000000	0,004742
561,000000	0,005128
560,000000	0,005240
559,000000	0,004937
558,000000	0,005167
557,000000	0,005059
556,000000	0,004962
555,000000	0,005493
554,000000	0,004810
553,000000	0,005167
552,000000	0,004869
551,000000	0,005252
550,000000	0,004843
549,000000	0,005201
548,000000	0,004952
547,000000	0,005306
546,000000	0,005245
545,000000	0,005315
544,000000	0,005196
543,000000	0,005200
542,000000	0,005293
541,000000	0,005331
540,000000	0,005502
539,000000	0,005052
538,000000	0,005430
537,000000	0,004938
536,000000	0,005425
535,000000	0,005312
534,000000	0,005707
533,000000	0,005628
532,000000	0,005570
531,000000	0,005818
530,000000	0,005519
529,000000	0,005596
528,000000	0,005575
527,000000	0,005804
526,000000	0,006050
525,000000	0,005563
524,000000	0,005773
523,000000	0,005781
522,000000	0,005621
521,000000	0,005995
520,000000	0,005944
519,000000	0,006053
518,000000	0,005781
517,000000	0,005727
516,000000	0,005905
515,000000	0,006181
514,000000	0,006230
513,000000	0,006153
512,000000	0,005884
511,000000	0,005968
510,000000	0,005864
509,000000	0,006383
508,000000	0,006392
507,000000	0,006022
506,000000	0,005897
505,000000	0,006031
504,000000	0,006333
503,000000	0,006266
502,000000	0,006383
501,000000	0,006289
500,000000	0,006320
499,000000	0,006229
498,000000	0,006409
497,000000	0,006586
496,000000	0,006018
495,000000	0,006322
494,000000	0,006439
493,000000	0,006590
492,000000	0,006261
491,000000	0,006359
490,000000	0,006648
489,000000	0,006814
488,000000	0,006787
487,000000	0,006586
486,000000	0,006619
485,000000	0,006370
484,000000	0,006549
483,000000	0,006502
482,000000	0,006646
481,000000	0,006669
480,000000	0,006792
479,000000	0,007025
478,000000	0,006870
477,000000	0,007115
476,000000	0,006581
475,000000	0,006565
474,000000	0,007309
473,000000	0,007801
472,000000	0,006922
471,000000	0,007330
470,000000	0,007748
469,000000	0,007496
468,000000	0,007545
467,000000	0,007375
466,000000	0,007403
465,000000	0,007732
464,000000	0,007643
463,000000	0,008064
462,000000	0,008108
461,000000	0,008173
460,000000	0,008176
459,000000	0,007877
458,000000	0,008358
457,000000	0,008306
456,000000	0,008536
455,000000	0,008609
454,000000	0,008652
453,000000	0,008356
452,000000	0,008498
451,000000	0,009155
450,000000	0,009101
449,000000	0,009016
448,000000	0,009172
447,000000	0,009571
446,000000	0,009463
445,000000	0,009802
444,000000	0,009337
443,000000	0,009878
442,000000	0,010358
441,000000	0,010104
440,000000	0,010270
439,000000	0,010174
438,000000	0,010667
437,000000	0,010243
436,000000	0,010094
435,000000	0,010757
434,000000	0,010955
433,000000	0,010772
432,000000	0,011354
431,000000	0,010917
430,000000	0,010787
429,000000	0,011459
428,000000	0,011639
427,000000	0,011597
426,000000	0,012196
425,000000	0,011826
424,000000	0,011955
423,000000	0,012088
422,000000	0,012404
421,000000	0,012240
420,000000	0,012598
419,000000	0,013043
418,000000	0,012952
417,000000	0,012752
416,000000	0,013402
415,000000	0,013332
414,000000	0,013495
413,000000	0,013323
412,000000	0,013766
411,000000	0,013706
410,000000	0,013987
409,000000	0,014364
408,000000	0,014352
407,000000	0,014644
406,000000	0,014989
405,000000	0,015261
404,000000	0,015303
403,000000	0,015611
402,000000	0,015827
401,000000	0,016039
400,000000	0,016395
399,000000	0,016631
398,000000	0,016868
397,000000	0,017109
396,000000	0,016947
395,000000	0,017843
394,000000	0,017975
393,000000	0,018214
392,000000	0,018574
391,000000	0,019012
390,000000	0,019473
