PE UV       SUBTECH     SPECTRUM    ASCII       PEDS        4.00        
   -1
47.Sample.Raw.asc
20/10/05
15:44:52.00
20/10/05
15:44:52.00
Analyst

390,000000
1
Lambda 25
501s11081509
PerkinElmer UV WinLab 6.0.3.0730 / Lambda25 1.27

480
2
1
0
0
Both on
1
1
1
None
0
0
0
0
 
 
0
0
0
0
0
 
 
 
0
 
0
326
0
 
0
 
 
 
0
0
0
 
0
 
 
 
0
 
 
0
0
0
0
0
 
 
 
 
0
0


#HDR
-1
-1
#GR
nm
A
1.0
0.0
700,000000
-1,000000
311
8
0,024145
0,013746
#DATA
700,000000	0,014024
699,000000	0,013985
698,000000	0,013771
697,000000	0,013771
696,000000	0,013863
695,000000	0,013839
694,000000	0,013900
693,000000	0,013896
692,000000	0,014013
691,000000	0,014225
690,000000	0,013746
689,000000	0,014176
688,000000	0,014006
687,000000	0,014286
686,000000	0,013969
685,000000	0,014174
684,000000	0,014257
683,000000	0,014361
682,000000	0,014181
681,000000	0,013945
680,000000	0,014115
679,000000	0,014166
678,000000	0,014206
677,000000	0,014297
676,000000	0,014163
675,000000	0,014460
674,000000	0,014259
673,000000	0,014469
672,000000	0,014068
671,000000	0,014496
670,000000	0,014249
669,000000	0,014308
668,000000	0,014290
667,000000	0,014636
666,000000	0,014763
665,000000	0,014689
664,000000	0,014572
663,000000	0,014673
662,000000	0,014759
661,000000	0,014920
660,000000	0,014634
659,000000	0,014384
658,000000	0,014897
657,000000	0,015037
656,000000	0,014747
655,000000	0,014504
654,000000	0,014464
653,000000	0,014774
652,000000	0,014525
651,000000	0,014715
650,000000	0,014855
649,000000	0,014749
648,000000	0,014905
647,000000	0,014869
646,000000	0,014993
645,000000	0,014803
644,000000	0,014670
643,000000	0,014943
642,000000	0,014816
641,000000	0,015194
640,000000	0,014916
639,000000	0,014962
638,000000	0,014947
637,000000	0,014867
636,000000	0,015194
635,000000	0,015100
634,000000	0,015103
633,000000	0,015044
632,000000	0,015065
631,000000	0,015303
630,000000	0,015138
629,000000	0,015289
628,000000	0,015167
627,000000	0,015169
626,000000	0,015302
625,000000	0,015146
624,000000	0,015234
623,000000	0,014913
622,000000	0,015198
621,000000	0,014879
620,000000	0,015035
619,000000	0,015287
618,000000	0,015171
617,000000	0,015124
616,000000	0,015233
615,000000	0,015640
614,000000	0,015270
613,000000	0,015413
612,000000	0,015552
611,000000	0,015349
610,000000	0,015362
609,000000	0,015540
608,000000	0,015664
607,000000	0,015650
606,000000	0,015246
605,000000	0,015548
604,000000	0,015819
603,000000	0,015962
602,000000	0,015754
601,000000	0,015934
600,000000	0,015758
599,000000	0,015788
598,000000	0,015649
597,000000	0,015536
596,000000	0,015754
595,000000	0,015867
594,000000	0,015622
593,000000	0,015708
592,000000	0,016085
591,000000	0,015919
590,000000	0,016011
589,000000	0,015993
588,000000	0,015877
587,000000	0,015894
586,000000	0,015967
585,000000	0,016137
584,000000	0,016097
583,000000	0,016067
582,000000	0,016179
581,000000	0,015900
580,000000	0,015963
579,000000	0,016131
578,000000	0,016328
577,000000	0,016310
576,000000	0,016413
575,000000	0,016568
574,000000	0,016357
573,000000	0,016539
572,000000	0,016580
571,000000	0,016420
570,000000	0,016656
569,000000	0,016499
568,000000	0,016632
567,000000	0,016171
566,000000	0,016503
565,000000	0,016623
564,000000	0,016540
563,000000	0,016596
562,000000	0,016931
561,000000	0,016748
560,000000	0,016823
559,000000	0,016887
558,000000	0,016977
557,000000	0,016829
556,000000	0,016760
555,000000	0,017179
554,000000	0,016607
553,000000	0,017007
552,000000	0,016845
551,000000	0,016970
550,000000	0,016723
549,000000	0,017041
548,000000	0,016843
547,000000	0,016998
546,000000	0,017194
545,000000	0,017364
544,000000	0,017201
543,000000	0,017172
542,000000	0,017233
541,000000	0,017300
540,000000	0,017384
539,000000	0,017006
538,000000	0,016991
537,000000	0,017206
536,000000	0,016951
535,000000	0,017202
534,000000	0,017623
533,000000	0,017547
532,000000	0,017510
531,000000	0,017544
530,000000	0,017343
529,000000	0,017663
528,000000	0,017383
527,000000	0,017632
526,000000	0,017942
525,000000	0,017281
524,000000	0,017927
523,000000	0,018098
522,000000	0,017508
521,000000	0,017664
520,000000	0,017656
519,000000	0,017961
518,000000	0,017609
517,000000	0,017977
516,000000	0,017703
515,000000	0,017999
514,000000	0,018111
513,000000	0,018084
512,000000	0,018222
511,000000	0,018069
510,000000	0,018049
509,000000	0,017989
508,000000	0,018423
507,000000	0,018067
506,000000	0,018087
505,000000	0,018266
504,000000	0,018281
503,000000	0,018205
502,000000	0,018382
501,000000	0,018403
500,000000	0,018424
499,000000	0,018391
498,000000	0,018670
497,000000	0,018668
496,000000	0,018468
495,000000	0,018608
494,000000	0,018541
493,000000	0,018959
492,000000	0,018596
491,000000	0,018691
490,000000	0,018938
489,000000	0,019159
488,000000	0,018847
487,000000	0,018999
486,000000	0,018964
485,000000	0,018770
484,000000	0,019323
483,000000	0,018955
482,000000	0,019299
481,000000	0,019221
480,000000	0,019223
479,000000	0,019351
478,000000	0,019219
477,000000	0,019300
476,000000	0,019141
475,000000	0,018934
474,000000	0,019717
473,000000	0,019949
472,000000	0,019157
471,000000	0,019566
470,000000	0,019838
469,000000	0,019801
468,000000	0,019735
467,000000	0,019463
466,000000	0,019604
465,000000	0,019699
464,000000	0,019774
463,000000	0,020027
462,000000	0,020079
461,000000	0,020457
460,000000	0,020068
459,000000	0,019929
458,000000	0,020220
457,000000	0,020040
456,000000	0,020389
455,000000	0,020263
454,000000	0,020320
453,000000	0,020157
452,000000	0,020368
451,000000	0,020572
450,000000	0,020641
449,000000	0,020804
448,000000	0,020707
447,000000	0,020552
446,000000	0,020771
445,000000	0,021185
444,000000	0,020745
443,000000	0,020877
442,000000	0,021397
441,000000	0,020570
440,000000	0,021026
439,000000	0,020999
438,000000	0,021280
437,000000	0,021490
436,000000	0,020890
435,000000	0,021263
434,000000	0,021925
433,000000	0,021352
432,000000	0,021626
431,000000	0,021102
430,000000	0,021345
429,000000	0,022037
428,000000	0,022009
427,000000	0,021767
426,000000	0,022771
425,000000	0,022601
424,000000	0,022663
423,000000	0,022512
422,000000	0,022463
421,000000	0,022318
420,000000	0,022558
419,000000	0,022783
418,000000	0,022480
417,000000	0,022472
416,000000	0,022434
415,000000	0,022756
414,000000	0,022827
413,000000	0,022417
412,000000	0,023025
411,000000	0,022801
410,000000	0,022969
409,000000	0,022913
408,000000	0,022693
407,000000	0,022719
406,000000	0,023104
405,000000	0,023126
404,000000	0,022899
403,000000	0,023122
402,000000	0,023224
401,000000	0,023222
400,000000	0,023464
399,000000	0,023229
398,000000	0,023423
397,000000	0,023558
396,000000	0,023235
395,000000	0,023530
394,000000	0,023817
393,000000	0,023682
392,000000	0,024145
391,000000	0,023933
390,000000	0,024144
