PE UV       SUBTECH     SPECTRUM    ASCII       PEDS        4.00        
   -1
7.Sample.Raw.asc
20/10/05
15:50:52.00
20/10/05
15:50:52.00
Analyst

390,000000
1
Lambda 25
501s11081509
PerkinElmer UV WinLab 6.0.3.0730 / Lambda25 1.27

480
2
1
0
0
Both on
1
1
1
None
0
0
0
0
 
 
0
0
0
0
0
 
 
 
0
 
0
326
0
 
0
 
 
 
0
0
0
 
0
 
 
 
0
 
 
0
0
0
0
0
 
 
 
 
0
0


#HDR
-1
-1
#GR
nm
A
1.0
0.0
700,000000
-1,000000
311
8
0,043111
0,000947
#DATA
700,000000	0,001083
699,000000	0,001154
698,000000	0,001298
697,000000	0,001072
696,000000	0,001196
695,000000	0,001155
694,000000	0,001110
693,000000	0,001115
692,000000	0,001316
691,000000	0,001485
690,000000	0,000947
689,000000	0,001416
688,000000	0,000997
687,000000	0,001290
686,000000	0,001413
685,000000	0,001158
684,000000	0,001295
683,000000	0,002139
682,000000	0,001949
681,000000	0,001826
680,000000	0,001797
679,000000	0,001740
678,000000	0,001599
677,000000	0,002009
676,000000	0,001774
675,000000	0,002329
674,000000	0,001940
673,000000	0,002156
672,000000	0,001697
671,000000	0,002123
670,000000	0,002033
669,000000	0,002183
668,000000	0,002075
667,000000	0,002237
666,000000	0,002229
665,000000	0,002350
664,000000	0,002238
663,000000	0,002247
662,000000	0,002131
661,000000	0,002480
660,000000	0,002447
659,000000	0,001975
658,000000	0,002540
657,000000	0,002586
656,000000	0,002142
655,000000	0,002134
654,000000	0,002118
653,000000	0,002193
652,000000	0,001940
651,000000	0,002580
650,000000	0,002189
649,000000	0,002410
648,000000	0,002494
647,000000	0,002556
646,000000	0,002132
645,000000	0,002307
644,000000	0,002421
643,000000	0,002662
642,000000	0,002088
641,000000	0,002371
640,000000	0,002171
639,000000	0,002567
638,000000	0,002005
637,000000	0,002221
636,000000	0,002379
635,000000	0,002234
634,000000	0,002210
633,000000	0,002435
632,000000	0,002306
631,000000	0,002440
630,000000	0,002394
629,000000	0,002524
628,000000	0,002523
627,000000	0,002625
626,000000	0,002628
625,000000	0,002449
624,000000	0,002554
623,000000	0,002395
622,000000	0,002446
621,000000	0,002454
620,000000	0,002392
619,000000	0,002463
618,000000	0,002475
617,000000	0,002793
616,000000	0,002768
615,000000	0,002995
614,000000	0,002622
613,000000	0,002801
612,000000	0,003064
611,000000	0,002730
610,000000	0,002760
609,000000	0,003026
608,000000	0,003269
607,000000	0,003506
606,000000	0,003194
605,000000	0,003430
604,000000	0,003489
603,000000	0,003443
602,000000	0,003710
601,000000	0,003829
600,000000	0,003990
599,000000	0,003642
598,000000	0,003630
597,000000	0,003648
596,000000	0,003757
595,000000	0,003878
594,000000	0,003590
593,000000	0,004039
592,000000	0,003918
591,000000	0,003944
590,000000	0,003734
589,000000	0,004079
588,000000	0,003782
587,000000	0,003992
586,000000	0,004133
585,000000	0,004439
584,000000	0,004453
583,000000	0,004366
582,000000	0,004225
581,000000	0,004618
580,000000	0,004718
579,000000	0,004717
578,000000	0,004825
577,000000	0,004877
576,000000	0,005075
575,000000	0,005403
574,000000	0,005539
573,000000	0,005336
572,000000	0,005719
571,000000	0,005577
570,000000	0,005835
569,000000	0,005642
568,000000	0,005918
567,000000	0,005721
566,000000	0,005791
565,000000	0,006292
564,000000	0,005991
563,000000	0,006098
562,000000	0,006539
561,000000	0,006497
560,000000	0,007018
559,000000	0,006193
558,000000	0,006385
557,000000	0,006302
556,000000	0,006412
555,000000	0,007170
554,000000	0,006371
553,000000	0,006762
552,000000	0,006739
551,000000	0,006873
550,000000	0,006941
549,000000	0,007192
548,000000	0,007188
547,000000	0,007460
546,000000	0,007812
545,000000	0,007820
544,000000	0,007818
543,000000	0,008234
542,000000	0,007928
541,000000	0,008314
540,000000	0,008392
539,000000	0,008211
538,000000	0,008510
537,000000	0,008278
536,000000	0,008544
535,000000	0,009012
534,000000	0,009218
533,000000	0,009045
532,000000	0,009655
531,000000	0,009542
530,000000	0,009828
529,000000	0,009901
528,000000	0,010208
527,000000	0,010183
526,000000	0,010690
525,000000	0,010366
524,000000	0,011172
523,000000	0,011380
522,000000	0,011286
521,000000	0,011918
520,000000	0,011902
519,000000	0,012249
518,000000	0,012533
517,000000	0,012708
516,000000	0,013038
515,000000	0,013398
514,000000	0,013867
513,000000	0,014107
512,000000	0,014287
511,000000	0,014593
510,000000	0,014564
509,000000	0,015291
508,000000	0,015789
507,000000	0,015845
506,000000	0,016032
505,000000	0,016491
504,000000	0,017201
503,000000	0,017494
502,000000	0,018057
501,000000	0,018073
500,000000	0,018714
499,000000	0,018998
498,000000	0,019826
497,000000	0,020379
496,000000	0,020438
495,000000	0,021107
494,000000	0,021357
493,000000	0,022108
492,000000	0,022128
491,000000	0,022626
490,000000	0,023249
489,000000	0,023709
488,000000	0,024149
487,000000	0,024236
486,000000	0,024750
485,000000	0,025023
484,000000	0,025344
483,000000	0,025706
482,000000	0,025991
481,000000	0,026520
480,000000	0,027025
479,000000	0,027449
478,000000	0,027527
477,000000	0,027987
476,000000	0,028204
475,000000	0,028121
474,000000	0,029136
473,000000	0,029724
472,000000	0,029214
471,000000	0,030299
470,000000	0,030740
469,000000	0,031105
468,000000	0,031155
467,000000	0,031367
466,000000	0,031564
465,000000	0,032227
464,000000	0,032693
463,000000	0,033282
462,000000	0,033877
461,000000	0,034215
460,000000	0,034276
459,000000	0,034532
458,000000	0,035195
457,000000	0,035406
456,000000	0,036194
455,000000	0,036071
454,000000	0,036746
453,000000	0,036699
452,000000	0,037010
451,000000	0,037691
450,000000	0,037642
449,000000	0,037590
448,000000	0,038473
447,000000	0,038391
446,000000	0,038453
445,000000	0,039047
444,000000	0,039011
443,000000	0,039359
442,000000	0,039892
441,000000	0,039667
440,000000	0,039883
439,000000	0,040236
438,000000	0,040576
437,000000	0,040684
436,000000	0,040034
435,000000	0,041388
434,000000	0,041482
433,000000	0,041668
432,000000	0,041901
431,000000	0,041371
430,000000	0,041499
429,000000	0,042212
428,000000	0,042101
427,000000	0,042388
426,000000	0,042920
425,000000	0,042692
424,000000	0,043111
423,000000	0,042749
422,000000	0,042583
421,000000	0,040180
420,000000	0,040425
419,000000	0,040630
418,000000	0,040361
417,000000	0,040169
416,000000	0,040487
415,000000	0,040325
414,000000	0,040417
413,000000	0,039960
412,000000	0,040460
411,000000	0,040327
410,000000	0,040151
409,000000	0,040506
408,000000	0,040189
407,000000	0,039876
406,000000	0,039898
405,000000	0,040148
404,000000	0,039816
403,000000	0,039907
402,000000	0,039540
401,000000	0,040028
400,000000	0,039942
399,000000	0,039829
398,000000	0,039871
397,000000	0,039884
396,000000	0,039610
395,000000	0,039957
394,000000	0,040062
393,000000	0,039768
392,000000	0,040033
391,000000	0,040184
390,000000	0,040521
