PE UV       SUBTECH     SPECTRUM    ASCII       PEDS        4.00        
   -1
8.Sample.Raw.asc
20/10/05
15:34:35.00
20/10/05
15:34:35.00
Analyst

390,000000
1
Lambda 25
501s11081509
PerkinElmer UV WinLab 6.0.3.0730 / Lambda25 1.27

480
2
1
0
0
Both on
1
1
1
None
0
0
0
0
 
 
0
0
0
0
0
 
 
 
0
 
0
326
0
 
0
 
 
 
0
0
0
 
0
 
 
 
0
 
 
0
0
0
0
0
 
 
 
 
0
0


#HDR
-1
-1
#GR
nm
A
1.0
0.0
700,000000
-1,000000
311
8
0,014828
0,001111
#DATA
700,000000	0,001412
699,000000	0,001396
698,000000	0,001483
697,000000	0,001385
696,000000	0,001418
695,000000	0,001447
694,000000	0,001411
693,000000	0,001214
692,000000	0,001547
691,000000	0,001708
690,000000	0,001264
689,000000	0,001425
688,000000	0,001442
687,000000	0,001698
686,000000	0,001682
685,000000	0,001505
684,000000	0,001489
683,000000	0,001415
682,000000	0,001564
681,000000	0,001123
680,000000	0,001301
679,000000	0,001111
678,000000	0,001351
677,000000	0,001557
676,000000	0,001306
675,000000	0,001538
674,000000	0,001381
673,000000	0,001463
672,000000	0,001303
671,000000	0,001708
670,000000	0,001506
669,000000	0,001490
668,000000	0,001581
667,000000	0,001635
666,000000	0,001776
665,000000	0,001486
664,000000	0,001707
663,000000	0,001720
662,000000	0,001425
661,000000	0,001815
660,000000	0,001840
659,000000	0,001522
658,000000	0,001949
657,000000	0,001671
656,000000	0,001435
655,000000	0,001585
654,000000	0,001411
653,000000	0,001361
652,000000	0,001486
651,000000	0,001776
650,000000	0,001727
649,000000	0,001607
648,000000	0,001728
647,000000	0,001682
646,000000	0,001553
645,000000	0,001362
644,000000	0,001113
643,000000	0,001321
642,000000	0,001288
641,000000	0,001700
640,000000	0,001292
639,000000	0,001434
638,000000	0,001359
637,000000	0,001600
636,000000	0,001625
635,000000	0,001696
634,000000	0,001439
633,000000	0,001430
632,000000	0,001214
631,000000	0,001393
630,000000	0,001710
629,000000	0,001497
628,000000	0,001614
627,000000	0,001560
626,000000	0,001368
625,000000	0,001277
624,000000	0,001531
623,000000	0,001394
622,000000	0,001402
621,000000	0,001436
620,000000	0,001353
619,000000	0,001486
618,000000	0,001549
617,000000	0,001394
616,000000	0,001265
615,000000	0,001756
614,000000	0,001498
613,000000	0,001661
612,000000	0,001790
611,000000	0,001607
610,000000	0,001332
609,000000	0,001831
608,000000	0,001352
607,000000	0,001806
606,000000	0,001398
605,000000	0,001822
604,000000	0,001568
603,000000	0,001664
602,000000	0,001576
601,000000	0,001771
600,000000	0,001651
599,000000	0,001517
598,000000	0,001672
597,000000	0,001601
596,000000	0,001655
595,000000	0,001726
594,000000	0,001510
593,000000	0,001631
592,000000	0,001498
591,000000	0,001611
590,000000	0,001521
589,000000	0,001550
588,000000	0,001293
587,000000	0,001374
586,000000	0,001651
585,000000	0,001887
584,000000	0,001520
583,000000	0,001455
582,000000	0,001137
581,000000	0,001711
580,000000	0,001608
579,000000	0,001600
578,000000	0,001387
577,000000	0,001541
576,000000	0,001444
575,000000	0,001551
574,000000	0,001552
573,000000	0,001790
572,000000	0,001604
571,000000	0,001868
570,000000	0,001635
569,000000	0,001763
568,000000	0,001785
567,000000	0,001753
566,000000	0,001345
565,000000	0,001506
564,000000	0,001391
563,000000	0,001527
562,000000	0,001408
561,000000	0,001655
560,000000	0,001791
559,000000	0,001671
558,000000	0,001802
557,000000	0,001738
556,000000	0,001688
555,000000	0,002009
554,000000	0,001590
553,000000	0,001908
552,000000	0,001730
551,000000	0,001972
550,000000	0,001552
549,000000	0,001747
548,000000	0,001963
547,000000	0,001882
546,000000	0,001737
545,000000	0,002122
544,000000	0,001860
543,000000	0,002033
542,000000	0,001821
541,000000	0,002016
540,000000	0,001804
539,000000	0,001766
538,000000	0,001804
537,000000	0,001576
536,000000	0,001762
535,000000	0,001940
534,000000	0,002185
533,000000	0,002059
532,000000	0,002033
531,000000	0,002160
530,000000	0,001910
529,000000	0,002211
528,000000	0,002007
527,000000	0,002249
526,000000	0,002027
525,000000	0,001974
524,000000	0,002290
523,000000	0,002346
522,000000	0,002045
521,000000	0,002312
520,000000	0,002197
519,000000	0,002264
518,000000	0,002116
517,000000	0,002345
516,000000	0,002289
515,000000	0,002695
514,000000	0,002584
513,000000	0,002423
512,000000	0,002342
511,000000	0,002630
510,000000	0,002466
509,000000	0,002859
508,000000	0,002705
507,000000	0,002829
506,000000	0,002816
505,000000	0,002874
504,000000	0,002856
503,000000	0,002742
502,000000	0,002817
501,000000	0,003105
500,000000	0,003091
499,000000	0,003072
498,000000	0,003165
497,000000	0,003626
496,000000	0,003170
495,000000	0,003372
494,000000	0,003337
493,000000	0,003628
492,000000	0,003579
491,000000	0,003388
490,000000	0,003914
489,000000	0,003976
488,000000	0,004100
487,000000	0,004142
486,000000	0,004061
485,000000	0,003859
484,000000	0,004369
483,000000	0,003980
482,000000	0,004330
481,000000	0,004587
480,000000	0,004532
479,000000	0,004455
478,000000	0,004555
477,000000	0,004688
476,000000	0,004474
475,000000	0,004032
474,000000	0,005047
473,000000	0,005490
472,000000	0,004526
471,000000	0,005193
470,000000	0,005239
469,000000	0,005336
468,000000	0,005043
467,000000	0,004931
466,000000	0,004638
465,000000	0,005080
464,000000	0,005177
463,000000	0,005480
462,000000	0,005420
461,000000	0,005719
460,000000	0,005557
459,000000	0,005173
458,000000	0,005947
457,000000	0,005751
456,000000	0,005743
455,000000	0,005708
454,000000	0,005900
453,000000	0,005686
452,000000	0,005698
451,000000	0,006135
450,000000	0,005758
449,000000	0,006280
448,000000	0,006409
447,000000	0,006034
446,000000	0,006484
445,000000	0,006583
444,000000	0,006933
443,000000	0,006482
442,000000	0,006850
441,000000	0,006663
440,000000	0,006627
439,000000	0,006578
438,000000	0,007099
437,000000	0,006785
436,000000	0,006819
435,000000	0,007340
434,000000	0,007703
433,000000	0,007467
432,000000	0,007716
431,000000	0,007191
430,000000	0,007093
429,000000	0,007680
428,000000	0,007370
427,000000	0,007803
426,000000	0,008171
425,000000	0,007861
424,000000	0,008443
423,000000	0,008749
422,000000	0,008278
421,000000	0,008569
420,000000	0,009104
419,000000	0,009308
418,000000	0,009045
417,000000	0,009077
416,000000	0,009208
415,000000	0,009541
414,000000	0,009637
413,000000	0,009706
412,000000	0,010088
411,000000	0,010248
410,000000	0,010080
409,000000	0,010512
408,000000	0,010429
407,000000	0,010754
406,000000	0,010965
405,000000	0,011206
404,000000	0,011185
403,000000	0,011492
402,000000	0,011627
401,000000	0,011943
400,000000	0,012477
399,000000	0,012426
398,000000	0,012657
397,000000	0,012775
396,000000	0,012927
395,000000	0,013921
394,000000	0,014008
393,000000	0,013946
392,000000	0,014587
391,000000	0,014814
390,000000	0,014828
