PE UV       SUBTECH     SPECTRUM    ASCII       PEDS        4.00        
   -1
9.Sample.Raw.asc
20/10/05
15:48:52.00
20/10/05
15:48:52.00
Analyst

390,000000
1
Lambda 25
501s11081509
PerkinElmer UV WinLab 6.0.3.0730 / Lambda25 1.27

480
2
1
0
0
Both on
1
1
1
None
0
0
0
0
 
 
0
0
0
0
0
 
 
 
0
 
0
326
0
 
0
 
 
 
0
0
0
 
0
 
 
 
0
 
 
0
0
0
0
0
 
 
 
 
0
0


#HDR
-1
-1
#GR
nm
A
1.0
0.0
700,000000
-1,000000
311
8
0,064422
0,001060
#DATA
700,000000	0,001240
699,000000	0,001335
698,000000	0,001294
697,000000	0,001060
696,000000	0,001183
695,000000	0,001299
694,000000	0,001287
693,000000	0,001065
692,000000	0,001255
691,000000	0,001391
690,000000	0,001066
689,000000	0,001371
688,000000	0,001232
687,000000	0,001240
686,000000	0,001554
685,000000	0,001480
684,000000	0,001506
683,000000	0,002321
682,000000	0,001883
681,000000	0,001711
680,000000	0,001706
679,000000	0,001665
678,000000	0,002034
677,000000	0,001938
676,000000	0,001671
675,000000	0,001968
674,000000	0,002044
673,000000	0,001969
672,000000	0,001925
671,000000	0,002384
670,000000	0,001842
669,000000	0,002017
668,000000	0,002013
667,000000	0,002133
666,000000	0,002004
665,000000	0,002146
664,000000	0,001931
663,000000	0,002077
662,000000	0,002135
661,000000	0,002135
660,000000	0,002032
659,000000	0,001863
658,000000	0,002386
657,000000	0,002386
656,000000	0,001897
655,000000	0,001893
654,000000	0,001868
653,000000	0,001768
652,000000	0,001981
651,000000	0,002026
650,000000	0,001985
649,000000	0,001998
648,000000	0,002065
647,000000	0,002073
646,000000	0,001944
645,000000	0,002132
644,000000	0,001704
643,000000	0,001745
642,000000	0,001783
641,000000	0,002079
640,000000	0,001675
639,000000	0,002059
638,000000	0,001688
637,000000	0,001967
636,000000	0,001970
635,000000	0,001908
634,000000	0,001759
633,000000	0,001801
632,000000	0,002089
631,000000	0,001964
630,000000	0,002010
629,000000	0,001739
628,000000	0,001935
627,000000	0,001765
626,000000	0,001956
625,000000	0,002148
624,000000	0,001923
623,000000	0,002053
622,000000	0,001844
621,000000	0,001866
620,000000	0,001720
619,000000	0,001936
618,000000	0,002053
617,000000	0,001791
616,000000	0,001958
615,000000	0,002644
614,000000	0,001853
613,000000	0,002153
612,000000	0,002257
611,000000	0,002241
610,000000	0,002137
609,000000	0,002257
608,000000	0,002504
607,000000	0,002549
606,000000	0,002203
605,000000	0,002586
604,000000	0,002410
603,000000	0,002373
602,000000	0,002335
601,000000	0,002471
600,000000	0,002518
599,000000	0,002714
598,000000	0,002581
597,000000	0,002611
596,000000	0,002544
595,000000	0,002744
594,000000	0,002223
593,000000	0,002445
592,000000	0,002704
591,000000	0,002680
590,000000	0,002348
589,000000	0,002524
588,000000	0,002318
587,000000	0,002475
586,000000	0,002401
585,000000	0,002739
584,000000	0,002750
583,000000	0,002834
582,000000	0,002792
581,000000	0,003048
580,000000	0,002845
579,000000	0,003008
578,000000	0,002918
577,000000	0,003083
576,000000	0,003284
575,000000	0,003349
574,000000	0,003433
573,000000	0,003545
572,000000	0,003559
571,000000	0,003378
570,000000	0,003647
569,000000	0,003368
568,000000	0,003727
567,000000	0,003444
566,000000	0,003163
565,000000	0,003845
564,000000	0,003709
563,000000	0,003781
562,000000	0,004024
561,000000	0,004238
560,000000	0,004041
559,000000	0,003672
558,000000	0,003812
557,000000	0,003679
556,000000	0,003595
555,000000	0,004120
554,000000	0,003425
553,000000	0,003884
552,000000	0,004031
551,000000	0,004119
550,000000	0,003749
549,000000	0,004004
548,000000	0,004029
547,000000	0,004318
546,000000	0,004433
545,000000	0,004447
544,000000	0,004303
543,000000	0,004652
542,000000	0,004486
541,000000	0,004668
540,000000	0,004699
539,000000	0,004577
538,000000	0,004729
537,000000	0,004668
536,000000	0,004706
535,000000	0,004965
534,000000	0,005104
533,000000	0,005285
532,000000	0,005570
531,000000	0,005394
530,000000	0,005502
529,000000	0,005814
528,000000	0,005592
527,000000	0,005825
526,000000	0,006024
525,000000	0,005923
524,000000	0,006295
523,000000	0,006693
522,000000	0,006324
521,000000	0,006904
520,000000	0,006797
519,000000	0,007108
518,000000	0,006950
517,000000	0,007334
516,000000	0,007598
515,000000	0,007638
514,000000	0,008202
513,000000	0,008129
512,000000	0,008181
511,000000	0,008489
510,000000	0,008234
509,000000	0,008785
508,000000	0,009172
507,000000	0,009157
506,000000	0,009457
505,000000	0,009900
504,000000	0,009967
503,000000	0,010073
502,000000	0,010504
501,000000	0,010633
500,000000	0,011089
499,000000	0,010798
498,000000	0,011547
497,000000	0,011729
496,000000	0,011857
495,000000	0,012244
494,000000	0,012617
493,000000	0,012897
492,000000	0,012900
491,000000	0,013085
490,000000	0,013823
489,000000	0,014044
488,000000	0,014380
487,000000	0,014778
486,000000	0,015079
485,000000	0,015268
484,000000	0,015584
483,000000	0,015798
482,000000	0,016461
481,000000	0,017030
480,000000	0,017059
479,000000	0,017601
478,000000	0,017981
477,000000	0,018127
476,000000	0,018423
475,000000	0,018710
474,000000	0,019375
473,000000	0,020186
472,000000	0,019578
471,000000	0,020533
470,000000	0,021466
469,000000	0,021677
468,000000	0,021825
467,000000	0,022149
466,000000	0,022197
465,000000	0,022953
464,000000	0,023159
463,000000	0,024001
462,000000	0,024484
461,000000	0,024965
460,000000	0,024982
459,000000	0,025243
458,000000	0,025914
457,000000	0,026230
456,000000	0,026438
455,000000	0,026416
454,000000	0,027310
453,000000	0,027862
452,000000	0,028009
451,000000	0,028828
450,000000	0,029049
449,000000	0,029234
448,000000	0,029819
447,000000	0,030060
446,000000	0,030431
445,000000	0,030781
444,000000	0,031441
443,000000	0,031521
442,000000	0,032413
441,000000	0,031979
440,000000	0,032463
439,000000	0,033215
438,000000	0,033312
437,000000	0,033726
436,000000	0,033829
435,000000	0,034424
434,000000	0,035222
433,000000	0,035409
432,000000	0,035868
431,000000	0,036094
430,000000	0,036039
429,000000	0,036254
428,000000	0,036444
427,000000	0,037347
426,000000	0,038546
425,000000	0,037938
424,000000	0,038859
423,000000	0,038793
422,000000	0,038772
421,000000	0,037042
420,000000	0,037534
419,000000	0,038056
418,000000	0,037959
417,000000	0,038345
416,000000	0,038831
415,000000	0,039567
414,000000	0,039668
413,000000	0,040011
412,000000	0,040784
411,000000	0,041658
410,000000	0,042130
409,000000	0,042885
408,000000	0,043114
407,000000	0,044013
406,000000	0,044909
405,000000	0,046002
404,000000	0,046323
403,000000	0,047359
402,000000	0,048636
401,000000	0,049685
400,000000	0,051181
399,000000	0,051935
398,000000	0,053327
397,000000	0,054404
396,000000	0,055168
395,000000	0,056932
394,000000	0,058216
393,000000	0,059482
392,000000	0,061181
391,000000	0,062937
390,000000	0,064422
