PE UV       SUBTECH     SPECTRUM    ASCII       PEDS        4.00        
   -1
branco.Sample.Raw.asc
20/10/05
15:30:50.00
20/10/05
15:30:50.00
Analyst

390,000000
1
Lambda 25
501s11081509
PerkinElmer UV WinLab 6.0.3.0730 / Lambda25 1.27

480
2
1
0
0
Both on
1
1
1
None
0
0
0
0
 
 
0
0
0
0
0
 
 
 
0
 
0
326
0
 
0
 
 
 
0
0
0
 
0
 
 
 
0
 
 
0
0
0
0
0
 
 
 
 
0
0


#HDR
-1
-1
#GR
nm
A
1.0
0.0
700,000000
-1,000000
311
8
0,002291
0,000078
#DATA
700,000000	0,000463
699,000000	0,000353
698,000000	0,000316
697,000000	0,000078
696,000000	0,000415
695,000000	0,000526
694,000000	0,000509
693,000000	0,000563
692,000000	0,000732
691,000000	0,000851
690,000000	0,000329
689,000000	0,000728
688,000000	0,000420
687,000000	0,000667
686,000000	0,000770
685,000000	0,000585
684,000000	0,000610
683,000000	0,000627
682,000000	0,000453
681,000000	0,000458
680,000000	0,000532
679,000000	0,000342
678,000000	0,000425
677,000000	0,000524
676,000000	0,000413
675,000000	0,000702
674,000000	0,000363
673,000000	0,000781
672,000000	0,000153
671,000000	0,000983
670,000000	0,000426
669,000000	0,000612
668,000000	0,000372
667,000000	0,000815
666,000000	0,000608
665,000000	0,000827
664,000000	0,001002
663,000000	0,000791
662,000000	0,000762
661,000000	0,000898
660,000000	0,000890
659,000000	0,000373
658,000000	0,000696
657,000000	0,000853
656,000000	0,000477
655,000000	0,000701
654,000000	0,000435
653,000000	0,000605
652,000000	0,000543
651,000000	0,000779
650,000000	0,000825
649,000000	0,000539
648,000000	0,000502
647,000000	0,000498
646,000000	0,000539
645,000000	0,000373
644,000000	0,000261
643,000000	0,000473
642,000000	0,000158
641,000000	0,000685
640,000000	0,000261
639,000000	0,000436
638,000000	0,000249
637,000000	0,000727
636,000000	0,000710
635,000000	0,000527
634,000000	0,000395
633,000000	0,000428
632,000000	0,000444
631,000000	0,000573
630,000000	0,000282
629,000000	0,000357
628,000000	0,000469
627,000000	0,000374
626,000000	0,000391
625,000000	0,000769
624,000000	0,000486
623,000000	0,000445
622,000000	0,000183
621,000000	0,000299
620,000000	0,000212
619,000000	0,000150
618,000000	0,000370
617,000000	0,000320
616,000000	0,000516
615,000000	0,000831
614,000000	0,000661
613,000000	0,000911
612,000000	0,000673
611,000000	0,000603
610,000000	0,000279
609,000000	0,000653
608,000000	0,000669
607,000000	0,000740
606,000000	0,000474
605,000000	0,000823
604,000000	0,000918
603,000000	0,000432
602,000000	0,000582
601,000000	0,000901
600,000000	0,000852
599,000000	0,000486
598,000000	0,000507
597,000000	0,000469
596,000000	0,000727
595,000000	0,000607
594,000000	0,000561
593,000000	0,000557
592,000000	0,000640
591,000000	0,000520
590,000000	0,000499
589,000000	0,000537
588,000000	0,000150
587,000000	0,000384
586,000000	0,000555
585,000000	0,000806
584,000000	0,000380
583,000000	0,000494
582,000000	0,000172
581,000000	0,000672
580,000000	0,000437
579,000000	0,000488
578,000000	0,000387
577,000000	0,000232
576,000000	0,000582
575,000000	0,000409
574,000000	0,000591
573,000000	0,000452
572,000000	0,000698
571,000000	0,000491
570,000000	0,000461
569,000000	0,000643
568,000000	0,000631
567,000000	0,000174
566,000000	0,000085
565,000000	0,000458
564,000000	0,000097
563,000000	0,000521
562,000000	0,000805
561,000000	0,000487
560,000000	0,000729
559,000000	0,000606
558,000000	0,000389
557,000000	0,000652
556,000000	0,000525
555,000000	0,001118
554,000000	0,000288
553,000000	0,000699
552,000000	0,000500
551,000000	0,000483
550,000000	0,000580
549,000000	0,000538
548,000000	0,000432
547,000000	0,000520
546,000000	0,000664
545,000000	0,000651
544,000000	0,000673
543,000000	0,000757
542,000000	0,000461
541,000000	0,000575
540,000000	0,000639
539,000000	0,000550
538,000000	0,000330
537,000000	0,000283
536,000000	0,000360
535,000000	0,000622
534,000000	0,000727
533,000000	0,000778
532,000000	0,000562
531,000000	0,000456
530,000000	0,000605
529,000000	0,000655
528,000000	0,000440
527,000000	0,000600
526,000000	0,000799
525,000000	0,000423
524,000000	0,000592
523,000000	0,000718
522,000000	0,000338
521,000000	0,000203
520,000000	0,000144
519,000000	0,000190
518,000000	0,000397
517,000000	0,000131
516,000000	0,000621
515,000000	0,000392
514,000000	0,000641
513,000000	0,000793
512,000000	0,000413
511,000000	0,000405
510,000000	0,000519
509,000000	0,000494
508,000000	0,000852
507,000000	0,000683
506,000000	0,000759
505,000000	0,000729
504,000000	0,000864
503,000000	0,000476
502,000000	0,000716
501,000000	0,000775
500,000000	0,000960
499,000000	0,000539
498,000000	0,000909
497,000000	0,000997
496,000000	0,000640
495,000000	0,000740
494,000000	0,000867
493,000000	0,001064
492,000000	0,000639
491,000000	0,000665
490,000000	0,001043
489,000000	0,000891
488,000000	0,000853
487,000000	0,001080
486,000000	0,000874
485,000000	0,000786
484,000000	0,000701
483,000000	0,000865
482,000000	0,000756
481,000000	0,001075
480,000000	0,001100
479,000000	0,001020
478,000000	0,001116
477,000000	0,001012
476,000000	0,000739
475,000000	0,000643
474,000000	0,001281
473,000000	0,001351
472,000000	0,000567
471,000000	0,001097
470,000000	0,001294
469,000000	0,001144
468,000000	0,000808
467,000000	0,000842
466,000000	0,000687
465,000000	0,001319
464,000000	0,000725
463,000000	0,000936
462,000000	0,001245
461,000000	0,001271
460,000000	0,000849
459,000000	0,000832
458,000000	0,000841
457,000000	0,000507
456,000000	0,000452
455,000000	0,000584
454,000000	0,000652
453,000000	0,000440
452,000000	0,000872
451,000000	0,001173
450,000000	0,000902
449,000000	0,000623
448,000000	0,000962
447,000000	0,000717
446,000000	0,000959
445,000000	0,001091
444,000000	0,000739
443,000000	0,000744
442,000000	0,001578
441,000000	0,000851
440,000000	0,000664
439,000000	0,001168
438,000000	0,001189
437,000000	0,000896
436,000000	0,000709
435,000000	0,001029
434,000000	0,001114
433,000000	0,001277
432,000000	0,001366
431,000000	0,000961
430,000000	0,000821
429,000000	0,001077
428,000000	0,000864
427,000000	0,001030
426,000000	0,001679
425,000000	0,001047
424,000000	0,001406
423,000000	0,001543
422,000000	0,001171
421,000000	0,001318
420,000000	0,001510
419,000000	0,001779
418,000000	0,001322
417,000000	0,001305
416,000000	0,001471
415,000000	0,001526
414,000000	0,001689
413,000000	0,001172
412,000000	0,001521
411,000000	0,001906
410,000000	0,001799
409,000000	0,001884
408,000000	0,001645
407,000000	0,001504
406,000000	0,001657
405,000000	0,001716
404,000000	0,001191
403,000000	0,001562
402,000000	0,001596
401,000000	0,001750
400,000000	0,001698
399,000000	0,001775
398,000000	0,001775
397,000000	0,001787
396,000000	0,001459
395,000000	0,001713
394,000000	0,001982
393,000000	0,001602
392,000000	0,002164
391,000000	0,002079
390,000000	0,002291
