PE UV       SUBTECH     SPECTRUM    ASCII       PEDS        4.00        
   -1
100% or 0 Absorbance Baseline.Correction.Raw.asc
20/08/21
12:22:13.00
20/08/21
12:22:13.00
Analyst

390,000000
1
Lambda 25
501s11081509
PerkinElmer UV WinLab 6.0.3.0730 / Lambda25 1.27

480
0
1
0
0
Both on
0
1
1
None
0
0
0
0
 
 
0
0
0
0
0
 
 
 
0
 
0
326
0
 
0
 
 
 
0
0
0
 
0
 
 
 
0
 
 
0
0
0
0
0
 
 
 
 
0
0


#HDR
-1
-1
#GR
nm
A
1.0
0.0
700,000000
-1,000000
311
8
-0,006877
-0,026002
#DATA
700,000000	-0,026002
699,000000	-0,025805
698,000000	-0,025576
697,000000	-0,025462
696,000000	-0,025310
695,000000	-0,025179
694,000000	-0,025121
693,000000	-0,025175
692,000000	-0,025068
691,000000	-0,024974
690,000000	-0,024658
689,000000	-0,024531
688,000000	-0,024375
687,000000	-0,024211
686,000000	-0,024186
685,000000	-0,023915
684,000000	-0,023837
683,000000	-0,023401
682,000000	-0,023240
681,000000	-0,023096
680,000000	-0,022927
679,000000	-0,023162
678,000000	-0,022915
677,000000	-0,022836
676,000000	-0,022729
675,000000	-0,022713
674,000000	-0,022622
673,000000	-0,022416
672,000000	-0,022197
671,000000	-0,022346
670,000000	-0,021946
669,000000	-0,021995
668,000000	-0,021946
667,000000	-0,021739
666,000000	-0,021450
665,000000	-0,021826
664,000000	-0,021582
663,000000	-0,021578
662,000000	-0,021417
661,000000	-0,021090
660,000000	-0,021193
659,000000	-0,021280
658,000000	-0,021098
657,000000	-0,021231
656,000000	-0,021160
655,000000	-0,021164
654,000000	-0,021061
653,000000	-0,020962
652,000000	-0,020838
651,000000	-0,020804
650,000000	-0,020544
649,000000	-0,020440
648,000000	-0,020399
647,000000	-0,020436
646,000000	-0,020245
645,000000	-0,020249
644,000000	-0,020332
643,000000	-0,020096
642,000000	-0,020121
641,000000	-0,019702
640,000000	-0,020001
639,000000	-0,019893
638,000000	-0,019843
637,000000	-0,019768
636,000000	-0,019876
635,000000	-0,019515
634,000000	-0,019627
633,000000	-0,019532
632,000000	-0,019444
631,000000	-0,019449
630,000000	-0,019187
629,000000	-0,019378
628,000000	-0,019378
627,000000	-0,019490
626,000000	-0,019357
625,000000	-0,019199
624,000000	-0,019266
623,000000	-0,019274
622,000000	-0,019237
621,000000	-0,019166
620,000000	-0,019220
619,000000	-0,019071
618,000000	-0,019112
617,000000	-0,018921
616,000000	-0,018938
615,000000	-0,018883
614,000000	-0,019079
613,000000	-0,018829
612,000000	-0,018992
611,000000	-0,019108
610,000000	-0,018971
609,000000	-0,018917
608,000000	-0,018863
607,000000	-0,018875
606,000000	-0,019187
605,000000	-0,019120
604,000000	-0,019079
603,000000	-0,018942
602,000000	-0,019083
601,000000	-0,019158
600,000000	-0,019204
599,000000	-0,019120
598,000000	-0,019324
597,000000	-0,019399
596,000000	-0,019287
595,000000	-0,019112
594,000000	-0,019195
593,000000	-0,018946
592,000000	-0,018908
591,000000	-0,018688
590,000000	-0,018467
589,000000	-0,018134
588,000000	-0,017793
587,000000	-0,017789
586,000000	-0,017351
585,000000	-0,016908
584,000000	-0,016402
583,000000	-0,015996
582,000000	-0,015465
581,000000	-0,015154
580,000000	-0,014495
579,000000	-0,013953
578,000000	-0,013755
577,000000	-0,013250
576,000000	-0,013242
575,000000	-0,012833
574,000000	-0,012491
573,000000	-0,012297
572,000000	-0,012141
571,000000	-0,012090
570,000000	-0,011900
569,000000	-0,011926
568,000000	-0,011524
567,000000	-0,011380
566,000000	-0,011350
565,000000	-0,011173
564,000000	-0,010864
563,000000	-0,010809
562,000000	-0,010944
561,000000	-0,010914
560,000000	-0,010766
559,000000	-0,011185
558,000000	-0,011156
557,000000	-0,010986
556,000000	-0,010995
555,000000	-0,011147
554,000000	-0,011126
553,000000	-0,011177
552,000000	-0,011401
551,000000	-0,011367
550,000000	-0,011562
549,000000	-0,011532
548,000000	-0,011503
547,000000	-0,011202
546,000000	-0,011338
545,000000	-0,011317
544,000000	-0,011249
543,000000	-0,011372
542,000000	-0,011308
541,000000	-0,011592
540,000000	-0,011676
539,000000	-0,011693
538,000000	-0,012002
537,000000	-0,011904
536,000000	-0,011904
535,000000	-0,011752
534,000000	-0,011782
533,000000	-0,011964
532,000000	-0,012082
531,000000	-0,011892
530,000000	-0,012111
529,000000	-0,011761
528,000000	-0,012094
527,000000	-0,011858
526,000000	-0,011955
525,000000	-0,012002
524,000000	-0,012031
523,000000	-0,012137
522,000000	-0,012234
521,000000	-0,012369
520,000000	-0,012221
519,000000	-0,012496
518,000000	-0,012209
517,000000	-0,012192
516,000000	-0,012377
515,000000	-0,012111
514,000000	-0,012221
513,000000	-0,012470
512,000000	-0,012474
511,000000	-0,012669
510,000000	-0,012795
509,000000	-0,012652
508,000000	-0,012723
507,000000	-0,012833
506,000000	-0,012744
505,000000	-0,013002
504,000000	-0,013077
503,000000	-0,013259
502,000000	-0,013414
501,000000	-0,013267
500,000000	-0,013360
499,000000	-0,013414
498,000000	-0,013570
497,000000	-0,013574
496,000000	-0,013831
495,000000	-0,013726
494,000000	-0,013814
493,000000	-0,013869
492,000000	-0,014092
491,000000	-0,014054
490,000000	-0,014046
489,000000	-0,014382
488,000000	-0,014453
487,000000	-0,014365
486,000000	-0,014747
485,000000	-0,014584
484,000000	-0,014781
483,000000	-0,014621
482,000000	-0,014760
481,000000	-0,014684
480,000000	-0,014890
479,000000	-0,014819
478,000000	-0,014579
477,000000	-0,014974
476,000000	-0,014819
475,000000	-0,014638
474,000000	-0,014672
473,000000	-0,014605
472,000000	-0,014395
471,000000	-0,014176
470,000000	-0,014336
469,000000	-0,014020
468,000000	-0,013877
467,000000	-0,013789
466,000000	-0,013444
465,000000	-0,013018
464,000000	-0,012943
463,000000	-0,012803
462,000000	-0,012774
461,000000	-0,012411
460,000000	-0,012183
459,000000	-0,012259
458,000000	-0,011782
457,000000	-0,011672
456,000000	-0,011630
455,000000	-0,011511
454,000000	-0,011228
453,000000	-0,011359
452,000000	-0,011486
451,000000	-0,011219
450,000000	-0,011240
449,000000	-0,010995
448,000000	-0,011126
447,000000	-0,010554
446,000000	-0,010431
445,000000	-0,010105
444,000000	-0,009854
443,000000	-0,009753
442,000000	-0,009370
441,000000	-0,009124
440,000000	-0,009141
439,000000	-0,008830
438,000000	-0,008417
437,000000	-0,007944
436,000000	-0,007970
435,000000	-0,007607
434,000000	-0,007680
433,000000	-0,007265
432,000000	-0,007637
431,000000	-0,007334
430,000000	-0,007419
429,000000	-0,007124
428,000000	-0,007300
427,000000	-0,007240
426,000000	-0,007223
425,000000	-0,006996
424,000000	-0,007009
423,000000	-0,006877
422,000000	-0,006996
421,000000	-0,007013
420,000000	-0,007419
419,000000	-0,007317
418,000000	-0,007214
417,000000	-0,007261
416,000000	-0,007517
415,000000	-0,007522
414,000000	-0,007662
413,000000	-0,007846
412,000000	-0,007688
411,000000	-0,007927
410,000000	-0,007935
409,000000	-0,007957
408,000000	-0,008059
407,000000	-0,007987
406,000000	-0,008110
405,000000	-0,008136
404,000000	-0,008332
403,000000	-0,008404
402,000000	-0,008626
401,000000	-0,008515
400,000000	-0,008677
399,000000	-0,008668
398,000000	-0,008575
397,000000	-0,008770
396,000000	-0,009102
395,000000	-0,008936
394,000000	-0,008783
393,000000	-0,008894
392,000000	-0,009234
391,000000	-0,009238
390,000000	-0,009336
