PE UV       SUBTECH     SPECTRUM    ASCII       PEDS        4.00        
   -1
100% or 0 Absorbance Baseline.Correction.Raw.asc
20/07/07
17:09:56.00
20/07/07
17:09:56.00
Analyst

390,000000
1
Lambda 25
501s11081509
PerkinElmer UV WinLab 6.0.3.0730 / Lambda25 1.27

480
0
1
0
0
Both on
0
1
1
None
0
0
0
0
 
 
0
0
0
0
0
 
 
 
0
 
0
326
0
 
0
 
 
 
0
0
0
 
0
 
 
 
0
 
 
0
0
0
0
0
 
 
 
 
0
0


#HDR
-1
-1
#GR
nm
A
1.0
0.0
700,000000
-1,000000
311
8
-0,006941
-0,025674
#DATA
700,000000	-0,025674
699,000000	-0,025457
698,000000	-0,025240
697,000000	-0,025289
696,000000	-0,024994
695,000000	-0,024785
694,000000	-0,024752
693,000000	-0,024654
692,000000	-0,024568
691,000000	-0,024490
690,000000	-0,024560
689,000000	-0,024145
688,000000	-0,024149
687,000000	-0,023931
686,000000	-0,023676
685,000000	-0,023652
684,000000	-0,023471
683,000000	-0,022981
682,000000	-0,022952
681,000000	-0,023088
680,000000	-0,022647
679,000000	-0,022713
678,000000	-0,022379
677,000000	-0,022424
676,000000	-0,022354
675,000000	-0,022305
674,000000	-0,022288
673,000000	-0,022152
672,000000	-0,022115
671,000000	-0,022094
670,000000	-0,022032
669,000000	-0,021809
668,000000	-0,021756
667,000000	-0,021855
666,000000	-0,021586
665,000000	-0,021433
664,000000	-0,021396
663,000000	-0,021557
662,000000	-0,021164
661,000000	-0,021297
660,000000	-0,021206
659,000000	-0,020788
658,000000	-0,020747
657,000000	-0,020751
656,000000	-0,020448
655,000000	-0,020403
654,000000	-0,020680
653,000000	-0,020473
652,000000	-0,020428
651,000000	-0,020312
650,000000	-0,020225
649,000000	-0,019872
648,000000	-0,019988
647,000000	-0,019723
646,000000	-0,019689
645,000000	-0,019673
644,000000	-0,019623
643,000000	-0,019631
642,000000	-0,019623
641,000000	-0,019665
640,000000	-0,019424
639,000000	-0,019532
638,000000	-0,019453
637,000000	-0,019528
636,000000	-0,019291
635,000000	-0,019353
634,000000	-0,019316
633,000000	-0,019519
632,000000	-0,019270
631,000000	-0,019336
630,000000	-0,019312
629,000000	-0,019270
628,000000	-0,019033
627,000000	-0,019091
626,000000	-0,019037
625,000000	-0,019278
624,000000	-0,019332
623,000000	-0,019233
622,000000	-0,019220
621,000000	-0,019120
620,000000	-0,019204
619,000000	-0,018992
618,000000	-0,018933
617,000000	-0,018962
616,000000	-0,018913
615,000000	-0,018742
614,000000	-0,018992
613,000000	-0,019000
612,000000	-0,019066
611,000000	-0,019390
610,000000	-0,019046
609,000000	-0,019170
608,000000	-0,019021
607,000000	-0,018996
606,000000	-0,019208
605,000000	-0,019125
604,000000	-0,019295
603,000000	-0,019370
602,000000	-0,019216
601,000000	-0,019361
600,000000	-0,019096
599,000000	-0,019270
598,000000	-0,019241
597,000000	-0,019378
596,000000	-0,019299
595,000000	-0,019291
594,000000	-0,019066
593,000000	-0,019282
592,000000	-0,019112
591,000000	-0,018788
590,000000	-0,018659
589,000000	-0,018293
588,000000	-0,017947
587,000000	-0,017380
586,000000	-0,017259
585,000000	-0,016306
584,000000	-0,016465
583,000000	-0,015934
582,000000	-0,015234
581,000000	-0,014869
580,000000	-0,014256
579,000000	-0,013781
578,000000	-0,012795
577,000000	-0,012863
576,000000	-0,012884
575,000000	-0,012272
574,000000	-0,011570
573,000000	-0,011727
572,000000	-0,011156
571,000000	-0,011486
570,000000	-0,011113
569,000000	-0,011169
568,000000	-0,010864
567,000000	-0,010847
566,000000	-0,010609
565,000000	-0,010906
564,000000	-0,010889
563,000000	-0,011075
562,000000	-0,011266
561,000000	-0,011160
560,000000	-0,010978
559,000000	-0,010923
558,000000	-0,011042
557,000000	-0,011003
556,000000	-0,011067
555,000000	-0,010995
554,000000	-0,011181
553,000000	-0,010999
552,000000	-0,010995
551,000000	-0,011033
550,000000	-0,011016
549,000000	-0,011156
548,000000	-0,011410
547,000000	-0,011346
546,000000	-0,011638
545,000000	-0,011651
544,000000	-0,011541
543,000000	-0,011625
542,000000	-0,011663
541,000000	-0,011592
540,000000	-0,011630
539,000000	-0,011465
538,000000	-0,011892
537,000000	-0,011866
536,000000	-0,011951
535,000000	-0,011917
534,000000	-0,011714
533,000000	-0,011854
532,000000	-0,012103
531,000000	-0,011858
530,000000	-0,011811
529,000000	-0,011773
528,000000	-0,011976
527,000000	-0,011685
526,000000	-0,011773
525,000000	-0,011997
524,000000	-0,011904
523,000000	-0,011887
522,000000	-0,012090
521,000000	-0,012048
520,000000	-0,012137
519,000000	-0,012111
518,000000	-0,012339
517,000000	-0,012394
516,000000	-0,012352
515,000000	-0,012685
514,000000	-0,012584
513,000000	-0,012487
512,000000	-0,012702
511,000000	-0,012917
510,000000	-0,012647
509,000000	-0,012976
508,000000	-0,012972
507,000000	-0,012955
506,000000	-0,013179
505,000000	-0,012964
504,000000	-0,013368
503,000000	-0,013326
502,000000	-0,013351
501,000000	-0,013490
500,000000	-0,013718
499,000000	-0,013638
498,000000	-0,013823
497,000000	-0,013873
496,000000	-0,013987
495,000000	-0,013987
494,000000	-0,014168
493,000000	-0,014105
492,000000	-0,014294
491,000000	-0,014462
490,000000	-0,014319
489,000000	-0,014285
488,000000	-0,014323
487,000000	-0,014659
486,000000	-0,014726
485,000000	-0,014768
484,000000	-0,014806
483,000000	-0,014596
482,000000	-0,014903
481,000000	-0,014865
480,000000	-0,014961
479,000000	-0,015070
478,000000	-0,014827
477,000000	-0,014970
476,000000	-0,014852
475,000000	-0,014911
474,000000	-0,014810
473,000000	-0,014924
472,000000	-0,014806
471,000000	-0,014554
470,000000	-0,014226
469,000000	-0,014117
468,000000	-0,014008
467,000000	-0,013654
466,000000	-0,013840
465,000000	-0,013364
464,000000	-0,013082
463,000000	-0,013056
462,000000	-0,013048
461,000000	-0,012732
460,000000	-0,012563
459,000000	-0,012306
458,000000	-0,011930
457,000000	-0,011921
456,000000	-0,011735
455,000000	-0,011638
454,000000	-0,011460
453,000000	-0,011465
452,000000	-0,011659
451,000000	-0,011355
450,000000	-0,011088
449,000000	-0,011012
448,000000	-0,010953
447,000000	-0,010580
446,000000	-0,010431
445,000000	-0,010334
444,000000	-0,010325
443,000000	-0,009893
442,000000	-0,009587
441,000000	-0,009302
440,000000	-0,008936
439,000000	-0,008775
438,000000	-0,008289
437,000000	-0,008447
436,000000	-0,008132
435,000000	-0,007880
434,000000	-0,007906
433,000000	-0,007863
432,000000	-0,007586
431,000000	-0,007475
430,000000	-0,007547
429,000000	-0,007748
428,000000	-0,007274
427,000000	-0,007458
426,000000	-0,007513
425,000000	-0,007321
424,000000	-0,007428
423,000000	-0,007790
422,000000	-0,007505
421,000000	-0,006941
420,000000	-0,006971
419,000000	-0,007026
418,000000	-0,007103
417,000000	-0,007124
416,000000	-0,007069
415,000000	-0,007090
414,000000	-0,007035
413,000000	-0,007376
412,000000	-0,007394
411,000000	-0,007389
410,000000	-0,007577
409,000000	-0,007406
408,000000	-0,007731
407,000000	-0,007722
406,000000	-0,007786
405,000000	-0,007918
404,000000	-0,007940
403,000000	-0,007940
402,000000	-0,008332
401,000000	-0,008055
400,000000	-0,008076
399,000000	-0,008110
398,000000	-0,008383
397,000000	-0,008413
396,000000	-0,008736
395,000000	-0,008617
394,000000	-0,009051
393,000000	-0,008928
392,000000	-0,009094
391,000000	-0,009073
390,000000	-0,009119
