PE UV       SUBTECH     SPECTRUM    ASCII       PEDS        4.00        
   -1
100% or 0 Absorbance Baseline.Correction.Raw.asc
20/07/01
14:50:26.00
20/07/01
14:50:26.00
Analyst

390,000000
1
Lambda 25
501s11081509
PerkinElmer UV WinLab 6.0.3.0730 / Lambda25 1.27

480
0
1
0
0
Both on
0
1
1
None
0
0
0
0
 
 
0
0
0
0
0
 
 
 
0
 
0
326
0
 
0
 
 
 
0
0
0
 
0
 
 
 
0
 
 
0
0
0
0
0
 
 
 
 
0
0


#HDR
-1
-1
#GR
nm
A
1.0
0.0
700,000000
-1,000000
311
8
-0,007167
-0,025687
#DATA
700,000000	-0,025687
699,000000	-0,025601
698,000000	-0,025539
697,000000	-0,025404
696,000000	-0,025142
695,000000	-0,025265
694,000000	-0,025322
693,000000	-0,025068
692,000000	-0,024904
691,000000	-0,024830
690,000000	-0,024916
689,000000	-0,024777
688,000000	-0,024609
687,000000	-0,024330
686,000000	-0,024243
685,000000	-0,024038
684,000000	-0,023746
683,000000	-0,023676
682,000000	-0,023483
681,000000	-0,023417
680,000000	-0,023285
679,000000	-0,023475
678,000000	-0,023162
677,000000	-0,023034
676,000000	-0,022882
675,000000	-0,022663
674,000000	-0,022655
673,000000	-0,022614
672,000000	-0,022457
671,000000	-0,022395
670,000000	-0,022177
669,000000	-0,022276
668,000000	-0,022111
667,000000	-0,022024
666,000000	-0,021826
665,000000	-0,021950
664,000000	-0,021805
663,000000	-0,021838
662,000000	-0,021491
661,000000	-0,021640
660,000000	-0,021512
659,000000	-0,021499
658,000000	-0,021326
657,000000	-0,021164
656,000000	-0,021148
655,000000	-0,021222
654,000000	-0,020958
653,000000	-0,021090
652,000000	-0,020974
651,000000	-0,020896
650,000000	-0,020804
649,000000	-0,020676
648,000000	-0,020713
647,000000	-0,020506
646,000000	-0,020399
645,000000	-0,020477
644,000000	-0,020452
643,000000	-0,020544
642,000000	-0,020336
641,000000	-0,020212
640,000000	-0,020225
639,000000	-0,020046
638,000000	-0,019752
637,000000	-0,019826
636,000000	-0,019615
635,000000	-0,019748
634,000000	-0,019760
633,000000	-0,019648
632,000000	-0,019536
631,000000	-0,019440
630,000000	-0,019407
629,000000	-0,019378
628,000000	-0,019228
627,000000	-0,019324
626,000000	-0,019224
625,000000	-0,019552
624,000000	-0,019341
623,000000	-0,019420
622,000000	-0,019390
621,000000	-0,019253
620,000000	-0,019204
619,000000	-0,019241
618,000000	-0,019062
617,000000	-0,019120
616,000000	-0,019054
615,000000	-0,019150
614,000000	-0,019066
613,000000	-0,019245
612,000000	-0,019021
611,000000	-0,019253
610,000000	-0,019062
609,000000	-0,019195
608,000000	-0,019212
607,000000	-0,019237
606,000000	-0,019154
605,000000	-0,019345
604,000000	-0,019274
603,000000	-0,019316
602,000000	-0,019133
601,000000	-0,018780
600,000000	-0,019058
599,000000	-0,018938
598,000000	-0,018967
597,000000	-0,019204
596,000000	-0,019100
595,000000	-0,019212
594,000000	-0,019183
593,000000	-0,019116
592,000000	-0,019150
591,000000	-0,018946
590,000000	-0,018505
589,000000	-0,018372
588,000000	-0,018105
587,000000	-0,017638
586,000000	-0,017271
585,000000	-0,016791
584,000000	-0,016185
583,000000	-0,015749
582,000000	-0,015444
581,000000	-0,014886
580,000000	-0,014462
579,000000	-0,014058
578,000000	-0,013663
577,000000	-0,013305
576,000000	-0,013124
575,000000	-0,012943
574,000000	-0,012749
573,000000	-0,012230
572,000000	-0,012474
571,000000	-0,012187
570,000000	-0,011786
569,000000	-0,011680
568,000000	-0,011202
567,000000	-0,011482
566,000000	-0,011355
565,000000	-0,011596
564,000000	-0,011431
563,000000	-0,011384
562,000000	-0,011245
561,000000	-0,011414
560,000000	-0,011008
559,000000	-0,011431
558,000000	-0,011224
557,000000	-0,011287
556,000000	-0,011397
555,000000	-0,011067
554,000000	-0,011092
553,000000	-0,011300
552,000000	-0,011016
551,000000	-0,011152
550,000000	-0,011312
549,000000	-0,011262
548,000000	-0,011482
547,000000	-0,011558
546,000000	-0,011456
545,000000	-0,011668
544,000000	-0,011583
543,000000	-0,011689
542,000000	-0,011727
541,000000	-0,011773
540,000000	-0,011803
539,000000	-0,011740
538,000000	-0,011947
537,000000	-0,011816
536,000000	-0,011964
535,000000	-0,011904
534,000000	-0,011642
533,000000	-0,011625
532,000000	-0,011985
531,000000	-0,011955
530,000000	-0,011989
529,000000	-0,011930
528,000000	-0,012331
527,000000	-0,012065
526,000000	-0,012171
525,000000	-0,012255
524,000000	-0,012107
523,000000	-0,012086
522,000000	-0,012166
521,000000	-0,012192
520,000000	-0,012149
519,000000	-0,012196
518,000000	-0,012356
517,000000	-0,012479
516,000000	-0,012449
515,000000	-0,012466
514,000000	-0,012377
513,000000	-0,012660
512,000000	-0,012521
511,000000	-0,012803
510,000000	-0,012770
509,000000	-0,012871
508,000000	-0,012985
507,000000	-0,012947
506,000000	-0,012879
505,000000	-0,012917
504,000000	-0,013065
503,000000	-0,013094
502,000000	-0,013141
501,000000	-0,013381
500,000000	-0,013516
499,000000	-0,013734
498,000000	-0,013600
497,000000	-0,013823
496,000000	-0,014037
495,000000	-0,014218
494,000000	-0,014168
493,000000	-0,014046
492,000000	-0,014479
491,000000	-0,014323
490,000000	-0,014327
489,000000	-0,014533
488,000000	-0,014672
487,000000	-0,014827
486,000000	-0,015154
485,000000	-0,014949
484,000000	-0,015175
483,000000	-0,015234
482,000000	-0,015192
481,000000	-0,015368
480,000000	-0,015573
479,000000	-0,015406
478,000000	-0,015247
477,000000	-0,015138
476,000000	-0,015133
475,000000	-0,014789
474,000000	-0,014961
473,000000	-0,014907
472,000000	-0,014848
471,000000	-0,014554
470,000000	-0,014458
469,000000	-0,014369
468,000000	-0,014268
467,000000	-0,014491
466,000000	-0,014008
465,000000	-0,013915
464,000000	-0,013334
463,000000	-0,013486
462,000000	-0,013174
461,000000	-0,013048
460,000000	-0,012867
459,000000	-0,012546
458,000000	-0,012601
457,000000	-0,012470
456,000000	-0,012289
455,000000	-0,012040
454,000000	-0,011968
453,000000	-0,012154
452,000000	-0,011926
451,000000	-0,012094
450,000000	-0,011693
449,000000	-0,011642
448,000000	-0,011422
447,000000	-0,011524
446,000000	-0,011194
445,000000	-0,010707
444,000000	-0,010588
443,000000	-0,010448
442,000000	-0,009880
441,000000	-0,009680
440,000000	-0,009438
439,000000	-0,009323
438,000000	-0,008953
437,000000	-0,008677
436,000000	-0,008741
435,000000	-0,008694
434,000000	-0,008285
433,000000	-0,008140
432,000000	-0,008093
431,000000	-0,007842
430,000000	-0,007773
429,000000	-0,007957
428,000000	-0,007829
427,000000	-0,007692
426,000000	-0,007893
425,000000	-0,007795
424,000000	-0,007965
423,000000	-0,008076
422,000000	-0,007978
421,000000	-0,007167
420,000000	-0,007184
419,000000	-0,007270
418,000000	-0,007167
417,000000	-0,007189
416,000000	-0,007317
415,000000	-0,007453
414,000000	-0,007564
413,000000	-0,007573
412,000000	-0,007688
411,000000	-0,007914
410,000000	-0,007752
409,000000	-0,007901
408,000000	-0,008115
407,000000	-0,008234
406,000000	-0,008234
405,000000	-0,008132
404,000000	-0,008404
403,000000	-0,008511
402,000000	-0,008609
401,000000	-0,008724
400,000000	-0,008800
399,000000	-0,008766
398,000000	-0,009124
397,000000	-0,008928
396,000000	-0,009073
395,000000	-0,009379
394,000000	-0,009260
393,000000	-0,009464
392,000000	-0,009298
391,000000	-0,009761
390,000000	-0,009587
