PE UV       SUBTECH     SPECTRUM    ASCII       PEDS        4.00        
   -1
100% or 0 Absorbance Baseline.Correction.Raw.asc
20/07/02
17:28:02.00
20/07/02
17:28:02.00
Analyst

200,000000
1
Lambda 25
501s11081509
PerkinElmer UV WinLab 6.0.3.0730 / Lambda25 1.27

480
0
1
0
0
Both on
0
1
1
None
0
0
0
0
 
 
0
0
0
0
0
 
 
 
0
 
0
326
0
 
0
 
 
 
0
0
0
 
0
 
 
 
0
 
 
0
0
0
0
0
 
 
 
 
0
0


#HDR
-1
-1
#GR
nm
A
1.0
0.0
700,000000
-1,000000
501
8
0,021514
-0,026219
#DATA
700,000000	-0,026108
699,000000	-0,026219
698,000000	-0,025769
697,000000	-0,025658
696,000000	-0,025629
695,000000	-0,025638
694,000000	-0,025404
693,000000	-0,025257
692,000000	-0,025158
691,000000	-0,024990
690,000000	-0,024945
689,000000	-0,024888
688,000000	-0,024830
687,000000	-0,024527
686,000000	-0,024272
685,000000	-0,024219
684,000000	-0,023890
683,000000	-0,023935
682,000000	-0,023709
681,000000	-0,023882
680,000000	-0,023594
679,000000	-0,023294
678,000000	-0,023211
677,000000	-0,023092
676,000000	-0,023096
675,000000	-0,023022
674,000000	-0,022795
673,000000	-0,022692
672,000000	-0,022461
671,000000	-0,022494
670,000000	-0,022659
669,000000	-0,022255
668,000000	-0,022267
667,000000	-0,022177
666,000000	-0,021851
665,000000	-0,021648
664,000000	-0,021760
663,000000	-0,021908
662,000000	-0,021681
661,000000	-0,021743
660,000000	-0,021768
659,000000	-0,021297
658,000000	-0,021586
657,000000	-0,021499
656,000000	-0,021289
655,000000	-0,021214
654,000000	-0,021313
653,000000	-0,021255
652,000000	-0,021193
651,000000	-0,020974
650,000000	-0,020949
649,000000	-0,020966
648,000000	-0,020908
647,000000	-0,020800
646,000000	-0,020510
645,000000	-0,020602
644,000000	-0,020618
643,000000	-0,020684
642,000000	-0,020440
641,000000	-0,020519
640,000000	-0,020419
639,000000	-0,020361
638,000000	-0,020312
637,000000	-0,020229
636,000000	-0,019972
635,000000	-0,019947
634,000000	-0,019996
633,000000	-0,019789
632,000000	-0,019702
631,000000	-0,019785
630,000000	-0,019781
629,000000	-0,019623
628,000000	-0,019677
627,000000	-0,019519
626,000000	-0,019498
625,000000	-0,019652
624,000000	-0,019615
623,000000	-0,019465
622,000000	-0,019490
621,000000	-0,019469
620,000000	-0,019436
619,000000	-0,019432
618,000000	-0,019399
617,000000	-0,019378
616,000000	-0,019170
615,000000	-0,019071
614,000000	-0,019154
613,000000	-0,019104
612,000000	-0,019224
611,000000	-0,019374
610,000000	-0,019208
609,000000	-0,019050
608,000000	-0,019253
607,000000	-0,019291
606,000000	-0,019237
605,000000	-0,019577
604,000000	-0,019291
603,000000	-0,019386
602,000000	-0,019486
601,000000	-0,019295
600,000000	-0,019399
599,000000	-0,019141
598,000000	-0,019303
597,000000	-0,019507
596,000000	-0,019191
595,000000	-0,019237
594,000000	-0,019154
593,000000	-0,019141
592,000000	-0,019249
591,000000	-0,019141
590,000000	-0,019137
589,000000	-0,018596
588,000000	-0,018488
587,000000	-0,017772
586,000000	-0,017492
585,000000	-0,017075
584,000000	-0,016758
583,000000	-0,016248
582,000000	-0,015553
581,000000	-0,015247
580,000000	-0,014626
579,000000	-0,014298
578,000000	-0,014117
577,000000	-0,013465
576,000000	-0,013246
575,000000	-0,013035
574,000000	-0,012863
573,000000	-0,012770
572,000000	-0,012588
571,000000	-0,012538
570,000000	-0,012073
569,000000	-0,012002
568,000000	-0,011934
567,000000	-0,011714
566,000000	-0,011740
565,000000	-0,011655
564,000000	-0,011490
563,000000	-0,011600
562,000000	-0,011566
561,000000	-0,011663
560,000000	-0,011697
559,000000	-0,011262
558,000000	-0,011549
557,000000	-0,011494
556,000000	-0,011511
555,000000	-0,011477
554,000000	-0,011507
553,000000	-0,011469
552,000000	-0,011477
551,000000	-0,011249
550,000000	-0,011579
549,000000	-0,011765
548,000000	-0,011638
547,000000	-0,011689
546,000000	-0,011685
545,000000	-0,011748
544,000000	-0,011655
543,000000	-0,011778
542,000000	-0,011883
541,000000	-0,012014
540,000000	-0,012297
539,000000	-0,011080
538,000000	-0,012044
537,000000	-0,012061
536,000000	-0,012310
535,000000	-0,012209
534,000000	-0,012073
533,000000	-0,012204
532,000000	-0,012221
531,000000	-0,012247
530,000000	-0,012310
529,000000	-0,012462
528,000000	-0,012496
527,000000	-0,012432
526,000000	-0,012361
525,000000	-0,012690
524,000000	-0,012487
523,000000	-0,012323
522,000000	-0,012559
521,000000	-0,012529
520,000000	-0,012310
519,000000	-0,012816
518,000000	-0,012744
517,000000	-0,012846
516,000000	-0,013035
515,000000	-0,012930
514,000000	-0,012905
513,000000	-0,012989
512,000000	-0,013082
511,000000	-0,013179
510,000000	-0,013217
509,000000	-0,013356
508,000000	-0,013280
507,000000	-0,013553
506,000000	-0,013452
505,000000	-0,013377
504,000000	-0,013663
503,000000	-0,013823
502,000000	-0,013806
501,000000	-0,013819
500,000000	-0,013852
499,000000	-0,014100
498,000000	-0,014369
497,000000	-0,014327
496,000000	-0,014630
495,000000	-0,014886
494,000000	-0,014630
493,000000	-0,014600
492,000000	-0,014840
491,000000	-0,014865
490,000000	-0,015129
489,000000	-0,014789
488,000000	-0,015397
487,000000	-0,015255
486,000000	-0,015188
485,000000	-0,015624
484,000000	-0,015523
483,000000	-0,015682
482,000000	-0,015699
481,000000	-0,015381
480,000000	-0,015536
479,000000	-0,015515
478,000000	-0,015553
477,000000	-0,015494
476,000000	-0,015540
475,000000	-0,015293
474,000000	-0,015372
473,000000	-0,015221
472,000000	-0,015087
471,000000	-0,015150
470,000000	-0,015041
469,000000	-0,014659
468,000000	-0,014537
467,000000	-0,014449
466,000000	-0,014184
465,000000	-0,014184
464,000000	-0,013987
463,000000	-0,013684
462,000000	-0,013596
461,000000	-0,013031
460,000000	-0,013136
459,000000	-0,012879
458,000000	-0,012479
457,000000	-0,012323
456,000000	-0,012382
455,000000	-0,012470
454,000000	-0,012369
453,000000	-0,012082
452,000000	-0,012179
451,000000	-0,011972
450,000000	-0,011883
449,000000	-0,011959
448,000000	-0,011647
447,000000	-0,011456
446,000000	-0,011435
445,000000	-0,011126
444,000000	-0,010605
443,000000	-0,010813
442,000000	-0,010075
441,000000	-0,009990
440,000000	-0,009578
439,000000	-0,009583
438,000000	-0,009523
437,000000	-0,009332
436,000000	-0,009077
435,000000	-0,008856
434,000000	-0,008898
433,000000	-0,008413
432,000000	-0,008306
431,000000	-0,008472
430,000000	-0,008187
429,000000	-0,008468
428,000000	-0,008549
427,000000	-0,008166
426,000000	-0,008353
425,000000	-0,008251
424,000000	-0,008430
423,000000	-0,008204
422,000000	-0,008383
421,000000	-0,007120
420,000000	-0,007453
419,000000	-0,007184
418,000000	-0,007295
417,000000	-0,007573
416,000000	-0,007368
415,000000	-0,007735
414,000000	-0,007530
413,000000	-0,007714
412,000000	-0,007854
411,000000	-0,008034
410,000000	-0,007953
409,000000	-0,008251
408,000000	-0,008353
407,000000	-0,008157
406,000000	-0,008366
405,000000	-0,008238
404,000000	-0,008575
403,000000	-0,008647
402,000000	-0,008545
401,000000	-0,008787
400,000000	-0,008690
399,000000	-0,009102
398,000000	-0,009230
397,000000	-0,009243
396,000000	-0,009187
395,000000	-0,009502
394,000000	-0,009370
393,000000	-0,009489
392,000000	-0,009476
391,000000	-0,009498
390,000000	-0,009676
389,000000	-0,009880
388,000000	-0,010020
387,000000	-0,009880
386,000000	-0,010079
385,000000	-0,010088
384,000000	-0,008157
383,000000	-0,020345
382,000000	-0,025920
381,000000	-0,020908
380,000000	-0,018401
379,000000	-0,019897
378,000000	-0,017092
377,000000	-0,016979
376,000000	-0,015787
375,000000	-0,016197
374,000000	-0,015213
373,000000	-0,015205
372,000000	-0,015641
371,000000	-0,014684
370,000000	-0,014705
369,000000	-0,013633
368,000000	-0,015117
367,000000	-0,014903
366,000000	-0,015368
365,000000	-0,015209
364,000000	-0,015167
363,000000	-0,014672
362,000000	-0,014651
361,000000	-0,014596
360,000000	-0,014256
359,000000	-0,015020
358,000000	-0,014991
357,000000	-0,015314
356,000000	-0,016452
355,000000	-0,015833
354,000000	-0,015368
353,000000	-0,015687
352,000000	-0,015578
351,000000	-0,015477
350,000000	-0,014903
349,000000	-0,016172
348,000000	-0,015666
347,000000	-0,015003
346,000000	-0,016034
345,000000	-0,016340
344,000000	-0,015309
343,000000	-0,014785
342,000000	-0,015129
341,000000	-0,015804
340,000000	-0,015879
339,000000	-0,013865
338,000000	-0,015318
337,000000	-0,014638
336,000000	-0,014584
335,000000	-0,014411
334,000000	-0,015175
333,000000	-0,013650
332,000000	-0,015158
331,000000	-0,013814
330,000000	-0,014987
329,000000	-0,016369
328,000000	-0,014873
327,000000	-0,016494
326,000000	0,000139
325,000000	0,007005
324,000000	0,006978
323,000000	0,007142
322,000000	0,007014
321,000000	0,007199
320,000000	0,007018
319,000000	0,007036
318,000000	0,007062
317,000000	0,006961
316,000000	0,006974
315,000000	0,007093
314,000000	0,007000
313,000000	0,006917
312,000000	0,007031
311,000000	0,007031
310,000000	0,007009
309,000000	0,007014
308,000000	0,007146
307,000000	0,007014
306,000000	0,007045
305,000000	0,007173
304,000000	0,007142
303,000000	0,007115
302,000000	0,007332
301,000000	0,007318
300,000000	0,007455
299,000000	0,007508
298,000000	0,007491
297,000000	0,007716
296,000000	0,007809
295,000000	0,007844
294,000000	0,008096
293,000000	0,008185
292,000000	0,008358
291,000000	0,008561
290,000000	0,008774
289,000000	0,008929
288,000000	0,009133
287,000000	0,009448
286,000000	0,009590
285,000000	0,009857
284,000000	0,010043
283,000000	0,010368
282,000000	0,010537
281,000000	0,010848
280,000000	0,011018
279,000000	0,011267
278,000000	0,011401
277,000000	0,011561
276,000000	0,011744
275,000000	0,012061
274,000000	0,012124
273,000000	0,012285
272,000000	0,012544
271,000000	0,012754
270,000000	0,012969
269,000000	0,013031
268,000000	0,013286
267,000000	0,013564
266,000000	0,013640
265,000000	0,013954
264,000000	0,014129
263,000000	0,014389
262,000000	0,014484
261,000000	0,014789
260,000000	0,014834
259,000000	0,015207
258,000000	0,015356
257,000000	0,015653
256,000000	0,015797
255,000000	0,016022
254,000000	0,016216
253,000000	0,016541
252,000000	0,016834
251,000000	0,017096
250,000000	0,017349
249,000000	0,017561
248,000000	0,017765
247,000000	0,017982
246,000000	0,018172
245,000000	0,018313
244,000000	0,018521
243,000000	0,018761
242,000000	0,018829
241,000000	0,019056
240,000000	0,019256
239,000000	0,019233
238,000000	0,019256
237,000000	0,019356
236,000000	0,019597
235,000000	0,019674
234,000000	0,019942
233,000000	0,020174
232,000000	0,020465
231,000000	0,020588
230,000000	0,020789
229,000000	0,020843
228,000000	0,020825
227,000000	0,020588
226,000000	0,020220
225,000000	0,019628
224,000000	0,018925
223,000000	0,018480
222,000000	0,018100
221,000000	0,018159
220,000000	0,018240
219,000000	0,018349
218,000000	0,018467
217,000000	0,018589
216,000000	0,018644
215,000000	0,018693
214,000000	0,018730
213,000000	0,018807
212,000000	0,018852
211,000000	0,019011
210,000000	0,019102
209,000000	0,019447
208,000000	0,019674
207,000000	0,019910
206,000000	0,020224
205,000000	0,020766
204,000000	0,020811
203,000000	0,020948
202,000000	0,021272
201,000000	0,021514
200,000000	0,021422
