PE UV       SUBTECH     SPECTRUM    ASCII       PEDS        4.00        
   -1
100% or 0 Absorbance Baseline.Correction.Raw.asc
20/08/28
12:26:58.00
20/08/28
12:26:58.00
Analyst

200,000000
1
Lambda 25
501s11081509
PerkinElmer UV WinLab 6.0.3.0730 / Lambda25 1.27

480
0
1
0
0
Both on
0
1
1
None
0
0
0
0
 
 
0
0
0
0
0
 
 
 
0
 
0
326
0
 
0
 
 
 
0
0
0
 
0
 
 
 
0
 
 
0
0
0
0
0
 
 
 
 
0
0


#HDR
-1
-1
#GR
nm
A
1.0
0.0
700,000000
-1,000000
501
8
0,015945
-0,026827
#DATA
700,000000	-0,025859
699,000000	-0,025748
698,000000	-0,025658
697,000000	-0,025609
696,000000	-0,025351
695,000000	-0,025298
694,000000	-0,025023
693,000000	-0,024925
692,000000	-0,025007
691,000000	-0,024814
690,000000	-0,024720
689,000000	-0,024601
688,000000	-0,024449
687,000000	-0,024416
686,000000	-0,024276
685,000000	-0,024301
684,000000	-0,023976
683,000000	-0,023861
682,000000	-0,023639
681,000000	-0,023672
680,000000	-0,023516
679,000000	-0,023631
678,000000	-0,023294
677,000000	-0,023244
676,000000	-0,022989
675,000000	-0,023030
674,000000	-0,022869
673,000000	-0,022915
672,000000	-0,022766
671,000000	-0,022832
670,000000	-0,022639
669,000000	-0,022614
668,000000	-0,022441
667,000000	-0,022536
666,000000	-0,022185
665,000000	-0,022069
664,000000	-0,022036
663,000000	-0,022140
662,000000	-0,021689
661,000000	-0,021731
660,000000	-0,021607
659,000000	-0,021892
658,000000	-0,021673
657,000000	-0,021491
656,000000	-0,021239
655,000000	-0,021082
654,000000	-0,021069
653,000000	-0,021206
652,000000	-0,021069
651,000000	-0,021040
650,000000	-0,020887
649,000000	-0,020987
648,000000	-0,020755
647,000000	-0,020916
646,000000	-0,020800
645,000000	-0,020560
644,000000	-0,020655
643,000000	-0,020519
642,000000	-0,020428
641,000000	-0,020614
640,000000	-0,020535
639,000000	-0,020515
638,000000	-0,020481
637,000000	-0,020287
636,000000	-0,020349
635,000000	-0,020440
634,000000	-0,020233
633,000000	-0,020162
632,000000	-0,020034
631,000000	-0,020316
630,000000	-0,020287
629,000000	-0,020225
628,000000	-0,020225
627,000000	-0,020216
626,000000	-0,020307
625,000000	-0,020183
624,000000	-0,020100
623,000000	-0,020241
622,000000	-0,020274
621,000000	-0,020034
620,000000	-0,020005
619,000000	-0,020295
618,000000	-0,020034
617,000000	-0,020249
616,000000	-0,019959
615,000000	-0,019996
614,000000	-0,019851
613,000000	-0,019905
612,000000	-0,019980
611,000000	-0,019872
610,000000	-0,019996
609,000000	-0,019988
608,000000	-0,019839
607,000000	-0,020142
606,000000	-0,020079
605,000000	-0,020113
604,000000	-0,020158
603,000000	-0,020104
602,000000	-0,020154
601,000000	-0,020423
600,000000	-0,020225
599,000000	-0,020195
598,000000	-0,020515
597,000000	-0,020353
596,000000	-0,020502
595,000000	-0,020527
594,000000	-0,020204
593,000000	-0,020291
592,000000	-0,020034
591,000000	-0,019843
590,000000	-0,019544
589,000000	-0,019199
588,000000	-0,019087
587,000000	-0,018526
586,000000	-0,018118
585,000000	-0,017776
584,000000	-0,017125
583,000000	-0,016820
582,000000	-0,016444
581,000000	-0,015800
580,000000	-0,015586
579,000000	-0,015096
578,000000	-0,014491
577,000000	-0,014163
576,000000	-0,013840
575,000000	-0,013246
574,000000	-0,013023
573,000000	-0,012732
572,000000	-0,012344
571,000000	-0,012116
570,000000	-0,012107
569,000000	-0,012200
568,000000	-0,012280
567,000000	-0,012344
566,000000	-0,012335
565,000000	-0,012183
564,000000	-0,012247
563,000000	-0,012065
562,000000	-0,012069
561,000000	-0,011955
560,000000	-0,011731
559,000000	-0,011959
558,000000	-0,012293
557,000000	-0,012166
556,000000	-0,012327
555,000000	-0,012145
554,000000	-0,012052
553,000000	-0,012090
552,000000	-0,012078
551,000000	-0,012133
550,000000	-0,012301
549,000000	-0,012238
548,000000	-0,012474
547,000000	-0,012504
546,000000	-0,012622
545,000000	-0,012563
544,000000	-0,012685
543,000000	-0,012339
542,000000	-0,012715
541,000000	-0,012550
540,000000	-0,012694
539,000000	-0,012694
538,000000	-0,012778
537,000000	-0,012778
536,000000	-0,012647
535,000000	-0,012863
534,000000	-0,012820
533,000000	-0,012618
532,000000	-0,013002
531,000000	-0,012896
530,000000	-0,012909
529,000000	-0,012875
528,000000	-0,012926
527,000000	-0,012922
526,000000	-0,012816
525,000000	-0,012871
524,000000	-0,012871
523,000000	-0,012943
522,000000	-0,012943
521,000000	-0,013031
520,000000	-0,013027
519,000000	-0,013212
518,000000	-0,013347
517,000000	-0,013393
516,000000	-0,013444
515,000000	-0,013524
514,000000	-0,013242
513,000000	-0,013558
512,000000	-0,013600
511,000000	-0,013705
510,000000	-0,013789
509,000000	-0,013999
508,000000	-0,014016
507,000000	-0,014155
506,000000	-0,014273
505,000000	-0,014084
504,000000	-0,014147
503,000000	-0,014361
502,000000	-0,014542
501,000000	-0,014462
500,000000	-0,014835
499,000000	-0,014747
498,000000	-0,014886
497,000000	-0,014710
496,000000	-0,014856
495,000000	-0,015163
494,000000	-0,015158
493,000000	-0,015167
492,000000	-0,015360
491,000000	-0,015339
490,000000	-0,015439
489,000000	-0,015661
488,000000	-0,015942
487,000000	-0,015741
486,000000	-0,015938
485,000000	-0,015988
484,000000	-0,015992
483,000000	-0,015825
482,000000	-0,016084
481,000000	-0,016101
480,000000	-0,016344
479,000000	-0,016248
478,000000	-0,016398
477,000000	-0,016210
476,000000	-0,016143
475,000000	-0,016277
474,000000	-0,015988
473,000000	-0,015984
472,000000	-0,015682
471,000000	-0,015641
470,000000	-0,015548
469,000000	-0,015515
468,000000	-0,015284
467,000000	-0,015163
466,000000	-0,014982
465,000000	-0,014684
464,000000	-0,014277
463,000000	-0,014298
462,000000	-0,014239
461,000000	-0,013962
460,000000	-0,013865
459,000000	-0,013507
458,000000	-0,013579
457,000000	-0,013402
456,000000	-0,013288
455,000000	-0,013174
454,000000	-0,012947
453,000000	-0,012900
452,000000	-0,013014
451,000000	-0,012694
450,000000	-0,012656
449,000000	-0,012702
448,000000	-0,012297
447,000000	-0,012318
446,000000	-0,011997
445,000000	-0,011697
444,000000	-0,011448
443,000000	-0,011613
442,000000	-0,011054
441,000000	-0,010741
440,000000	-0,010770
439,000000	-0,010258
438,000000	-0,009986
437,000000	-0,009617
436,000000	-0,009629
435,000000	-0,009706
434,000000	-0,009026
433,000000	-0,009591
432,000000	-0,009481
431,000000	-0,008804
430,000000	-0,009387
429,000000	-0,008613
428,000000	-0,009085
427,000000	-0,008728
426,000000	-0,008630
425,000000	-0,008698
424,000000	-0,008979
423,000000	-0,009102
422,000000	-0,008485
421,000000	-0,007944
420,000000	-0,008213
419,000000	-0,008068
418,000000	-0,008029
417,000000	-0,008259
416,000000	-0,008149
415,000000	-0,008383
414,000000	-0,008396
413,000000	-0,008536
412,000000	-0,008477
411,000000	-0,008570
410,000000	-0,008753
409,000000	-0,008749
408,000000	-0,008613
407,000000	-0,008885
406,000000	-0,008958
405,000000	-0,008962
404,000000	-0,009213
403,000000	-0,009298
402,000000	-0,009213
401,000000	-0,009578
400,000000	-0,009595
399,000000	-0,009574
398,000000	-0,009425
397,000000	-0,009723
396,000000	-0,009842
395,000000	-0,009994
394,000000	-0,009816
393,000000	-0,009986
392,000000	-0,010241
391,000000	-0,010241
390,000000	-0,010453
389,000000	-0,010419
388,000000	-0,010580
387,000000	-0,010758
386,000000	-0,010724
385,000000	-0,011232
384,000000	-0,010241
383,000000	-0,025830
382,000000	-0,026827
381,000000	-0,021384
380,000000	-0,021160
379,000000	-0,018646
378,000000	-0,019698
377,000000	-0,019332
376,000000	-0,016716
375,000000	-0,016891
374,000000	-0,017947
373,000000	-0,017922
372,000000	-0,017313
371,000000	-0,016436
370,000000	-0,016139
369,000000	-0,016837
368,000000	-0,017125
367,000000	-0,016444
366,000000	-0,016808
365,000000	-0,016248
364,000000	-0,016703
363,000000	-0,016214
362,000000	-0,017342
361,000000	-0,016172
360,000000	-0,016937
359,000000	-0,016314
358,000000	-0,017079
357,000000	-0,016452
356,000000	-0,016202
355,000000	-0,017759
354,000000	-0,016553
353,000000	-0,015854
352,000000	-0,017376
351,000000	-0,017730
350,000000	-0,018451
349,000000	-0,016946
348,000000	-0,017705
347,000000	-0,017284
346,000000	-0,017688
345,000000	-0,018463
344,000000	-0,016875
343,000000	-0,017984
342,000000	-0,016783
341,000000	-0,015766
340,000000	-0,017067
339,000000	-0,016749
338,000000	-0,015406
337,000000	-0,016344
336,000000	-0,017025
335,000000	-0,015632
334,000000	-0,015796
333,000000	-0,015410
332,000000	-0,016845
331,000000	-0,017046
330,000000	-0,017522
329,000000	-0,019515
328,000000	-0,018559
327,000000	-0,017980
326,000000	-0,002425
325,000000	0,001985
324,000000	0,001976
323,000000	0,001946
322,000000	0,001919
321,000000	0,001937
320,000000	0,001985
319,000000	0,001828
318,000000	0,001832
317,000000	0,002033
316,000000	0,001776
315,000000	0,001819
314,000000	0,001837
313,000000	0,001780
312,000000	0,001789
311,000000	0,001837
310,000000	0,001981
309,000000	0,001837
308,000000	0,001797
307,000000	0,001749
306,000000	0,001837
305,000000	0,001863
304,000000	0,001885
303,000000	0,001994
302,000000	0,002072
301,000000	0,002094
300,000000	0,002111
299,000000	0,002391
298,000000	0,002221
297,000000	0,002465
296,000000	0,002570
295,000000	0,002518
294,000000	0,002797
293,000000	0,002937
292,000000	0,003121
291,000000	0,003248
290,000000	0,003545
289,000000	0,003760
288,000000	0,003869
287,000000	0,004181
286,000000	0,004330
285,000000	0,004553
284,000000	0,004786
283,000000	0,005028
282,000000	0,005212
281,000000	0,005472
280,000000	0,005652
279,000000	0,005929
278,000000	0,006048
277,000000	0,006233
276,000000	0,006392
275,000000	0,006586
274,000000	0,006811
273,000000	0,006780
272,000000	0,007076
271,000000	0,007279
270,000000	0,007442
269,000000	0,007566
268,000000	0,007579
267,000000	0,007977
266,000000	0,008119
265,000000	0,008291
264,000000	0,008570
263,000000	0,008778
262,000000	0,009027
261,000000	0,009106
260,000000	0,009470
259,000000	0,009626
258,000000	0,009821
257,000000	0,010017
256,000000	0,010177
255,000000	0,010470
254,000000	0,010724
253,000000	0,010969
252,000000	0,011263
251,000000	0,011517
250,000000	0,011727
249,000000	0,011918
248,000000	0,012128
247,000000	0,012356
246,000000	0,012539
245,000000	0,012682
244,000000	0,012830
243,000000	0,013067
242,000000	0,013228
241,000000	0,013385
240,000000	0,013457
239,000000	0,013493
238,000000	0,013618
237,000000	0,013681
236,000000	0,013959
235,000000	0,014165
234,000000	0,014322
233,000000	0,014618
232,000000	0,014839
231,000000	0,014996
230,000000	0,015162
229,000000	0,015261
228,000000	0,015135
227,000000	0,014902
226,000000	0,014511
225,000000	0,013936
224,000000	0,013295
223,000000	0,012794
222,000000	0,012548
221,000000	0,012490
220,000000	0,012588
219,000000	0,012669
218,000000	0,012843
217,000000	0,012888
216,000000	0,012919
215,000000	0,013018
214,000000	0,013054
213,000000	0,013098
212,000000	0,013228
211,000000	0,013291
210,000000	0,013479
209,000000	0,013811
208,000000	0,013981
207,000000	0,014259
206,000000	0,014668
205,000000	0,015153
204,000000	0,015090
203,000000	0,015302
202,000000	0,015621
201,000000	0,015945
200,000000	0,015729
