PE UV       SUBTECH     SPECTRUM    ASCII       PEDS        4.00        
   -1
branco.Sample.Raw.asc
20/08/28
12:30:34.00
20/08/28
12:30:34.00
Analyst

200,000000
1
Lambda 25
501s11081509
PerkinElmer UV WinLab 6.0.3.0730 / Lambda25 1.27

480
2
1
0
0
Both on
1
1
1
None
0
0
0
0
 
 
0
0
0
0
0
 
 
 
0
 
0
326
0
 
0
 
 
 
0
0
0
 
0
 
 
 
0
 
 
0
0
0
0
0
 
 
 
 
0
0


#HDR
-1
-1
#GR
nm
A
1.0
0.0
700,000000
-1,000000
501
8
0,111503
-0,015859
#DATA
700,000000	-0,000785
699,000000	-0,000634
698,000000	-0,000491
697,000000	-0,000626
696,000000	-0,000651
695,000000	-0,000626
694,000000	-0,000709
693,000000	-0,000823
692,000000	-0,000655
691,000000	-0,000836
690,000000	-0,000869
689,000000	-0,000644
688,000000	-0,000648
687,000000	-0,000349
686,000000	-0,000587
685,000000	-0,000419
684,000000	-0,000706
683,000000	-0,000649
682,000000	-0,001138
681,000000	-0,000809
680,000000	-0,000736
679,000000	-0,000695
678,000000	-0,000917
677,000000	-0,000827
676,000000	-0,000922
675,000000	-0,000942
674,000000	-0,000729
673,000000	-0,000753
672,000000	-0,000721
671,000000	-0,000560
670,000000	-0,000708
669,000000	-0,000659
668,000000	-0,000651
667,000000	-0,000536
666,000000	-0,000750
665,000000	-0,000870
664,000000	-0,000685
663,000000	-0,000462
662,000000	-0,001209
661,000000	-0,000867
660,000000	-0,001019
659,000000	-0,000660
658,000000	-0,000735
657,000000	-0,000863
656,000000	-0,001156
655,000000	-0,001272
654,000000	-0,001223
653,000000	-0,000777
652,000000	-0,000864
651,000000	-0,000872
650,000000	-0,001170
649,000000	-0,000893
648,000000	-0,000918
647,000000	-0,000678
646,000000	-0,000868
645,000000	-0,000807
644,000000	-0,001030
643,000000	-0,000828
642,000000	-0,001047
641,000000	-0,000509
640,000000	-0,000393
639,000000	-0,000472
638,000000	-0,000422
637,000000	-0,000737
636,000000	-0,000389
635,000000	-0,000306
634,000000	-0,000642
633,000000	-0,000617
632,000000	-0,000729
631,000000	-0,000543
630,000000	-0,000323
629,000000	-0,000389
628,000000	-0,000381
627,000000	-0,000688
626,000000	-0,000336
625,000000	-0,000704
624,000000	-0,000555
623,000000	-0,000476
622,000000	-0,000447
621,000000	-0,000543
620,000000	-0,000531
619,000000	0,000012
618,000000	-0,000510
617,000000	-0,000236
616,000000	-0,000568
615,000000	-0,000456
614,000000	-0,000601
613,000000	-0,000568
612,000000	-0,000381
611,000000	-0,000473
610,000000	-0,000427
609,000000	-0,000390
608,000000	-0,000522
607,000000	-0,000265
606,000000	-0,000290
605,000000	-0,000381
604,000000	-0,000597
603,000000	-0,000622
602,000000	-0,000506
601,000000	-0,000257
600,000000	-0,000166
599,000000	-0,000257
598,000000	-0,000261
597,000000	-0,000369
596,000000	-0,000298
595,000000	-0,000265
594,000000	-0,000356
593,000000	-0,000215
592,000000	-0,000659
591,000000	-0,000390
590,000000	-0,000403
589,000000	-0,000511
588,000000	-0,000179
587,000000	-0,000607
586,000000	-0,000741
585,000000	-0,000833
584,000000	-0,000697
583,000000	-0,000680
582,000000	-0,000414
581,000000	-0,000498
580,000000	-0,000477
579,000000	-0,000407
578,000000	-0,000688
577,000000	-0,000483
576,000000	-0,000576
575,000000	-0,000631
574,000000	-0,000489
573,000000	-0,000805
572,000000	-0,000923
571,000000	-0,000798
570,000000	-0,000679
569,000000	-0,000616
568,000000	-0,000515
567,000000	-0,000464
566,000000	-0,000316
565,000000	-0,000523
564,000000	-0,000042
563,000000	-0,000625
562,000000	-0,000591
561,000000	-0,000418
560,000000	-0,000705
559,000000	-0,000612
558,000000	-0,000447
557,000000	-0,000456
556,000000	-0,000270
555,000000	-0,000211
554,000000	-0,000519
553,000000	-0,000232
552,000000	-0,000388
551,000000	-0,000194
550,000000	-0,000072
549,000000	-0,000397
548,000000	-0,000266
547,000000	-0,000359
546,000000	-0,000278
545,000000	-0,000451
544,000000	-0,000194
543,000000	-0,000704
542,000000	-0,000177
541,000000	-0,000278
540,000000	-0,000093
539,000000	-0,000223
538,000000	-0,000223
537,000000	-0,000350
536,000000	-0,000434
535,000000	-0,000257
534,000000	-0,000316
533,000000	-0,000489
532,000000	-0,000169
531,000000	-0,000261
530,000000	-0,000287
529,000000	-0,000383
528,000000	-0,000131
527,000000	-0,000392
526,000000	-0,000451
525,000000	-0,000207
524,000000	-0,000266
523,000000	-0,000219
522,000000	-0,000207
521,000000	-0,000139
520,000000	-0,000261
519,000000	-0,000059
518,000000	-0,000088
517,000000	-0,000278
516,000000	-0,000067
515,000000	0,000109
514,000000	-0,000366
513,000000	-0,000152
512,000000	-0,000038
511,000000	-0,000223
510,000000	0,000008
509,000000	-0,000013
508,000000	0,000080
507,000000	0,000214
506,000000	0,000189
505,000000	-0,000156
504,000000	-0,000269
503,000000	-0,000197
502,000000	-0,000050
501,000000	-0,000118
500,000000	-0,000046
499,000000	0,000126
498,000000	-0,000055
497,000000	-0,000323
496,000000	-0,000168
495,000000	-0,000059
494,000000	-0,000189
493,000000	-0,000205
492,000000	0,000247
491,000000	-0,000101
490,000000	-0,000314
489,000000	0,000184
488,000000	0,000184
487,000000	-0,000054
486,000000	0,000059
485,000000	0,000017
484,000000	0,000046
483,000000	-0,000071
482,000000	0,000109
481,000000	0,000155
480,000000	0,000389
479,000000	0,000142
478,000000	0,000460
477,000000	0,000109
476,000000	-0,000059
475,000000	0,000071
474,000000	0,000017
473,000000	0,000054
472,000000	-0,000180
471,000000	-0,000025
470,000000	0,000008
469,000000	0,000096
468,000000	0,000239
467,000000	-0,000055
466,000000	-0,000067
465,000000	-0,000109
464,000000	-0,000365
463,000000	0,000000
462,000000	-0,000042
461,000000	0,000000
460,000000	0,000135
459,000000	-0,000076
458,000000	0,000105
457,000000	0,000270
456,000000	0,000101
455,000000	0,000198
454,000000	0,000101
453,000000	0,000097
452,000000	0,000126
451,000000	-0,000354
450,000000	-0,000127
449,000000	0,000240
448,000000	0,000131
447,000000	0,000313
446,000000	-0,000046
445,000000	-0,000363
444,000000	-0,000313
443,000000	0,000457
442,000000	-0,000169
441,000000	-0,000250
440,000000	0,000127
439,000000	0,000013
438,000000	-0,000089
437,000000	-0,000195
436,000000	-0,000246
435,000000	0,000000
434,000000	-0,000434
433,000000	-0,000038
432,000000	-0,000178
431,000000	-0,000761
430,000000	-0,000089
429,000000	-0,000574
428,000000	-0,000340
427,000000	-0,000260
426,000000	-0,000566
425,000000	-0,000647
424,000000	0,000051
423,000000	-0,000204
422,000000	-0,000532
421,000000	0,000380
420,000000	0,000222
419,000000	0,000124
418,000000	0,000047
417,000000	0,000115
416,000000	0,000034
415,000000	0,000349
414,000000	0,000145
413,000000	0,000145
412,000000	0,000162
411,000000	0,000149
410,000000	0,000392
409,000000	0,000272
408,000000	0,000043
407,000000	0,000260
406,000000	-0,000030
405,000000	0,000017
404,000000	0,000349
403,000000	0,000370
402,000000	0,000179
401,000000	0,000459
400,000000	0,000170
399,000000	0,000306
398,000000	-0,000076
397,000000	0,000217
396,000000	0,000157
395,000000	0,000004
394,000000	-0,000238
393,000000	0,000085
392,000000	0,000025
391,000000	0,000293
390,000000	0,000051
389,000000	-0,000072
388,000000	0,000064
387,000000	0,000136
386,000000	-0,000186
385,000000	0,000220
384,000000	0,001508
383,000000	-0,015859
382,000000	-0,010177
381,000000	-0,007484
380,000000	-0,006038
379,000000	-0,005782
378,000000	-0,002801
377,000000	-0,002204
376,000000	-0,003886
375,000000	-0,003880
374,000000	-0,000870
373,000000	-0,001564
372,000000	-0,001629
371,000000	-0,003013
370,000000	-0,001049
369,000000	-0,000885
368,000000	-0,001596
367,000000	-0,002061
366,000000	-0,001406
365,000000	-0,000564
364,000000	-0,001269
363,000000	-0,002844
362,000000	0,000330
361,000000	-0,001937
360,000000	-0,002428
359,000000	-0,001982
358,000000	-0,001101
357,000000	-0,001415
356,000000	-0,001566
355,000000	-0,000875
354,000000	-0,002435
353,000000	-0,002172
352,000000	-0,001666
351,000000	-0,001020
350,000000	-0,000906
349,000000	-0,001659
348,000000	-0,000700
347,000000	-0,002206
346,000000	-0,001640
345,000000	-0,000191
344,000000	-0,000822
343,000000	0,000500
342,000000	-0,000238
341,000000	-0,001509
340,000000	-0,000200
339,000000	-0,001264
338,000000	-0,003078
337,000000	-0,002128
336,000000	-0,000984
335,000000	-0,002044
334,000000	-0,002239
333,000000	-0,002595
332,000000	-0,000605
331,000000	0,000084
330,000000	0,001124
329,000000	0,000395
328,000000	-0,001972
327,000000	-0,002791
326,000000	-0,000056
325,000000	0,000948
324,000000	0,001057
323,000000	0,000930
322,000000	0,000983
321,000000	0,000943
320,000000	0,000961
319,000000	0,001157
318,000000	0,001140
317,000000	0,001118
316,000000	0,001332
315,000000	0,001214
314,000000	0,001210
313,000000	0,001240
312,000000	0,001205
311,000000	0,001162
310,000000	0,001236
309,000000	0,001262
308,000000	0,001433
307,000000	0,001577
306,000000	0,001389
305,000000	0,001520
304,000000	0,001652
303,000000	0,001626
302,000000	0,001639
301,000000	0,001644
300,000000	0,001841
299,000000	0,001557
298,000000	0,001903
297,000000	0,001764
296,000000	0,001707
295,000000	0,001917
294,000000	0,001800
293,000000	0,001867
292,000000	0,001872
291,000000	0,001943
290,000000	0,001896
289,000000	0,001989
288,000000	0,002218
287,000000	0,002132
286,000000	0,002313
285,000000	0,002429
284,000000	0,002545
283,000000	0,002640
282,000000	0,002946
281,000000	0,003094
280,000000	0,003113
279,000000	0,003270
278,000000	0,003569
277,000000	0,003690
276,000000	0,003714
275,000000	0,003871
274,000000	0,003815
273,000000	0,004229
272,000000	0,004366
271,000000	0,004684
270,000000	0,004896
269,000000	0,004924
268,000000	0,005273
267,000000	0,005242
266,000000	0,005580
265,000000	0,005937
264,000000	0,006331
263,000000	0,006672
262,000000	0,006824
261,000000	0,007060
260,000000	0,007242
259,000000	0,007538
258,000000	0,007722
257,000000	0,007952
256,000000	0,008114
255,000000	0,008069
254,000000	0,008233
253,000000	0,008578
252,000000	0,009221
251,000000	0,010316
250,000000	0,012286
249,000000	0,016634
248,000000	0,023702
247,000000	0,034179
246,000000	0,043072
245,000000	0,044655
244,000000	0,040325
243,000000	0,036665
242,000000	0,036782
241,000000	0,038383
240,000000	0,038825
239,000000	0,038603
238,000000	0,039463
237,000000	0,042854
236,000000	0,046587
235,000000	0,049181
234,000000	0,048235
233,000000	0,044342
232,000000	0,041786
231,000000	0,040946
230,000000	0,040108
229,000000	0,038311
228,000000	0,036740
227,000000	0,035977
226,000000	0,035748
225,000000	0,034853
224,000000	0,033013
223,000000	0,030903
222,000000	0,029380
221,000000	0,028111
220,000000	0,026584
219,000000	0,025289
218,000000	0,024163
217,000000	0,023400
216,000000	0,022595
215,000000	0,021964
214,000000	0,021683
213,000000	0,021846
212,000000	0,022338
211,000000	0,023701
210,000000	0,026131
209,000000	0,030463
208,000000	0,037655
207,000000	0,048278
206,000000	0,063209
205,000000	0,078970
204,000000	0,091603
203,000000	0,099467
202,000000	0,104876
201,000000	0,109219
200,000000	0,111503
