PE UV       SUBTECH     SPECTRUM    ASCII       PEDS        4.00        
   -1
branco2.Sample.Raw.asc
20/08/28
12:33:11.00
20/08/28
12:33:11.00
Analyst

390,000000
1
Lambda 25
501s11081509
PerkinElmer UV WinLab 6.0.3.0730 / Lambda25 1.27

480
2
1
0
0
Both on
1
1
1
None
0
0
0
0
 
 
0
0
0
0
0
 
 
 
0
 
0
326
0
 
0
 
 
 
0
0
0
 
0
 
 
 
0
 
 
0
0
0
0
0
 
 
 
 
0
0


#HDR
-1
-1
#GR
nm
A
1.0
0.0
700,000000
-1,000000
311
8
0,001470
-0,000496
#DATA
700,000000	-0,000205
699,000000	-0,000217
698,000000	-0,000286
697,000000	-0,000213
696,000000	-0,000131
695,000000	-0,000037
694,000000	-0,000348
693,000000	-0,000250
692,000000	-0,000082
691,000000	-0,000139
690,000000	-0,000189
689,000000	-0,000205
688,000000	-0,000115
687,000000	-0,000144
686,000000	-0,000230
685,000000	0,000094
684,000000	-0,000197
683,000000	0,000152
682,000000	0,000049
681,000000	0,000004
680,000000	-0,000004
679,000000	0,000074
678,000000	0,000169
677,000000	0,000066
676,000000	-0,000177
675,000000	0,000152
674,000000	0,000276
673,000000	0,000412
672,000000	0,000350
671,000000	0,000235
670,000000	0,000062
669,000000	0,000342
668,000000	0,000161
667,000000	0,000404
666,000000	-0,000120
665,000000	0,000334
664,000000	0,000128
663,000000	0,000454
662,000000	-0,000202
661,000000	-0,000202
660,000000	-0,000264
659,000000	0,000202
658,000000	0,000004
657,000000	-0,000190
656,000000	-0,000248
655,000000	-0,000347
654,000000	-0,000314
653,000000	-0,000037
652,000000	-0,000108
651,000000	-0,000070
650,000000	-0,000496
649,000000	-0,000050
648,000000	-0,000228
647,000000	-0,000132
646,000000	0,000203
645,000000	-0,000054
644,000000	-0,000050
643,000000	-0,000095
642,000000	-0,000133
641,000000	-0,000186
640,000000	-0,000141
639,000000	-0,000141
638,000000	0,000203
637,000000	0,000141
636,000000	0,000274
635,000000	0,000506
634,000000	0,000195
633,000000	0,000153
632,000000	-0,000133
631,000000	0,000240
630,000000	0,000303
629,000000	0,000158
628,000000	0,000315
627,000000	0,000037
626,000000	0,000348
625,000000	-0,000029
624,000000	0,000087
623,000000	0,000473
622,000000	0,000464
621,000000	0,000207
620,000000	0,000029
619,000000	0,000294
618,000000	0,000145
617,000000	0,000365
616,000000	0,000008
615,000000	0,000253
614,000000	0,000083
613,000000	0,000203
612,000000	0,000299
611,000000	0,000224
610,000000	0,000145
609,000000	0,000369
608,000000	0,000274
607,000000	0,000361
606,000000	0,000398
605,000000	0,000311
604,000000	0,000382
603,000000	0,000100
602,000000	0,000137
601,000000	0,000543
600,000000	0,000352
599,000000	0,000079
598,000000	0,000361
597,000000	0,000444
596,000000	0,000319
595,000000	0,000439
594,000000	0,000357
593,000000	0,000630
592,000000	0,000340
591,000000	0,000170
590,000000	0,000249
589,000000	0,000195
588,000000	0,000299
587,000000	-0,000158
586,000000	-0,000071
585,000000	-0,000013
584,000000	-0,000042
583,000000	0,000084
582,000000	0,000628
581,000000	0,000272
580,000000	0,000558
579,000000	0,000407
578,000000	0,000113
577,000000	0,000088
576,000000	0,000215
575,000000	0,000114
574,000000	0,000152
573,000000	0,000165
572,000000	0,000190
571,000000	0,000308
570,000000	0,000249
569,000000	0,000338
568,000000	0,000384
567,000000	0,000494
566,000000	0,000541
565,000000	0,000625
564,000000	0,000477
563,000000	0,000537
562,000000	0,000469
561,000000	0,000524
560,000000	0,000237
559,000000	-0,000080
558,000000	0,000384
557,000000	0,000308
556,000000	0,000469
555,000000	0,000359
554,000000	0,000042
553,000000	0,000203
552,000000	0,000203
551,000000	0,000296
550,000000	0,000431
549,000000	0,000313
548,000000	0,000291
547,000000	0,000329
546,000000	0,000333
545,000000	0,000371
544,000000	0,000367
543,000000	0,000198
542,000000	0,000278
541,000000	0,000190
540,000000	0,000481
539,000000	0,000295
538,000000	0,000359
537,000000	0,000316
536,000000	0,000456
535,000000	0,000472
534,000000	0,000418
533,000000	0,000156
532,000000	0,000540
531,000000	0,000392
530,000000	0,000004
529,000000	0,000418
528,000000	0,000418
527,000000	0,000405
526,000000	0,000240
525,000000	0,000346
524,000000	0,000363
523,000000	0,000413
522,000000	0,000371
521,000000	0,000350
520,000000	0,000447
519,000000	0,000451
518,000000	0,000409
517,000000	0,000636
516,000000	0,000531
515,000000	0,000640
514,000000	0,000287
513,000000	0,000657
512,000000	0,000312
511,000000	0,000476
510,000000	0,000493
509,000000	0,000871
508,000000	0,000576
507,000000	0,000884
506,000000	0,000694
505,000000	0,000421
504,000000	0,000400
503,000000	0,000761
502,000000	0,000748
501,000000	0,000521
500,000000	0,000668
499,000000	0,000554
498,000000	0,000676
497,000000	0,000508
496,000000	0,000659
495,000000	0,000705
494,000000	0,000709
493,000000	0,000684
492,000000	0,000671
491,000000	0,000516
490,000000	0,000457
489,000000	0,000604
488,000000	0,000914
487,000000	0,000616
486,000000	0,000880
485,000000	0,000922
484,000000	0,000859
483,000000	0,000708
482,000000	0,000808
481,000000	0,000611
480,000000	0,000988
479,000000	0,000779
478,000000	0,000875
477,000000	0,000808
476,000000	0,000729
475,000000	0,001173
474,000000	0,001048
473,000000	0,000670
472,000000	0,000683
471,000000	0,000759
470,000000	0,000856
469,000000	0,000747
468,000000	0,000739
467,000000	0,000814
466,000000	0,000890
465,000000	0,000992
464,000000	0,000606
463,000000	0,000900
462,000000	0,000761
461,000000	0,000783
460,000000	0,000808
459,000000	0,000822
458,000000	0,001024
457,000000	0,000797
456,000000	0,001021
455,000000	0,001046
454,000000	0,000819
453,000000	0,000912
452,000000	0,001080
451,000000	0,000367
450,000000	0,000832
449,000000	0,000925
448,000000	0,000942
447,000000	0,000925
446,000000	0,000710
445,000000	0,000927
444,000000	0,000876
443,000000	0,001139
442,000000	0,000865
441,000000	0,000661
440,000000	0,000933
439,000000	0,000858
438,000000	0,000743
437,000000	0,000561
436,000000	0,000740
435,000000	0,001046
434,000000	0,000621
433,000000	0,001349
432,000000	0,001030
431,000000	0,000409
430,000000	0,000736
429,000000	0,000541
428,000000	0,001035
427,000000	0,000439
426,000000	0,000737
425,000000	0,000618
424,000000	0,000954
423,000000	0,001470
422,000000	0,000175
421,000000	0,000644
420,000000	0,000772
419,000000	0,000678
418,000000	0,000631
417,000000	0,000789
416,000000	0,000533
415,000000	0,000652
414,000000	0,000750
413,000000	0,000682
412,000000	0,000708
411,000000	0,000524
410,000000	0,000733
409,000000	0,000886
408,000000	0,000413
407,000000	0,000647
406,000000	0,000801
405,000000	0,000583
404,000000	0,000843
403,000000	0,000821
402,000000	0,000442
401,000000	0,001149
400,000000	0,000889
399,000000	0,001149
398,000000	0,000638
397,000000	0,000978
396,000000	0,000888
395,000000	0,000913
394,000000	0,000582
393,000000	0,000722
392,000000	0,000926
391,000000	0,000811
390,000000	0,000874
